Depth,Temperature,Salinity
166.19890077033457,-1.4627916470217188,33.198243316568444
166.44890077033457,-1.4609805443874972,33.207039099263575
166.69890077033457,-1.4576344231979312,33.2189669315305
166.94890077033457,-1.4524379637430338,33.230389976592434
167.19890077033457,-1.4485582515493285,33.23883670867708
167.44890077033457,-1.4484690711791133,33.24462047364706
167.69890077033457,-1.4487069647376185,33.24999651820335
167.94890077033457,-1.447325960856847,33.25484534641889
168.19890077033457,-1.4435648287378042,33.26191469513937
168.44890077033457,-1.440648822496919,33.267270690436135
168.69890077033457,-1.4408372915324479,33.27019049412397
168.94890077033457,-1.4422682668713023,33.27684821822328
169.19890077033457,-1.4441831980707358,33.28272906131384
169.44890077033457,-1.4446745627717574,33.28646452588637
169.69890077033457,-1.4435677284685506,33.29024683733671
169.94890077033457,-1.4420143560263923,33.29536275926162
170.19890077033457,-1.440734064588722,33.30103134628793
170.44890077033457,-1.4394232259903537,33.30745997786174
170.69890077033457,-1.4378062179377775,33.31418109650502
170.94890077033457,-1.4361167289260097,33.320622264684715
171.19890077033457,-1.434106674580105,33.32655135740819
171.44890077033457,-1.431121268533631,33.33244462081098
171.69890077033457,-1.4282847731713244,33.339470314147924
171.94890077033457,-1.425223685027728,33.34589751072739
172.19890077033457,-1.4228519327630704,33.35184907392821
172.44890077033457,-1.4211253347012707,33.35783783723718
172.69890077033457,-1.4184763208022004,33.36292456405026
172.94890077033457,-1.4171466409317293,33.36861680845882
173.19890077033457,-1.4145758146519392,33.37313839159494
173.44890077033457,-1.4121038315953602,33.37842312604746
173.69890077033457,-1.4102916987267866,33.385284985086855
173.94890077033457,-1.4076362086943006,33.39201287824984
174.19890077033457,-1.405291348651632,33.398824147789654
174.44890077033457,-1.4038638432868202,33.405744320983025
174.69890077033457,-1.4024012479654284,33.41036213502183
174.94890077033457,-1.4007228037533443,33.41382536069126
175.19890077033457,-1.3994008968247014,33.419087647129025
175.44890077033457,-1.397872806533604,33.42472149489499
175.69890077033457,-1.3952804023415466,33.43049701099493
175.94890077033457,-1.3926799223273783,33.43576377600662
176.19890077033457,-1.3905598818271308,33.439677997610566
176.44890077033457,-1.3873698224705913,33.44349495137584
176.69890077033457,-1.3824373340856586,33.45119118455835
176.94890077033457,-1.3770693475993752,33.45978582089763
177.19890077033457,-1.372301364408653,33.46829618234481
177.44890077033457,-1.3687395541176741,33.476777251439735
177.69890077033457,-1.3662994140860183,33.48316964437866
177.94890077033457,-1.3636158767634297,33.48703492047663
178.19890077033457,-1.361481130312361,33.49286971188789
178.44890077033457,-1.3592139486894887,33.498886869645844
178.69890077033457,-1.3564869925497056,33.50496297328482
178.94890077033457,-1.3540444084392802,33.51295885386074
179.19890077033457,-1.3514928233815509,33.519214001937684
179.44890077033457,-1.3477404112373228,33.52689371690807
179.69890077033457,-1.3444080870146329,33.535854902047745
179.94890077033457,-1.3415408193150247,33.54328319491994
180.19890077033457,-1.3377417743149458,33.549208500736995
180.44890077033457,-1.3342621066117217,33.55725227320676
180.69890077033457,-1.3317474109403966,33.56542548476039
180.94890077033457,-1.3284203347929744,33.57188078626334
181.19890077033457,-1.3236442446081844,33.581484495887025
181.44890077033457,-1.3188422016846253,33.59398085264232
181.69890077033457,-1.3149071904632796,33.598890221234534
181.94890077033457,-1.3108562985201606,33.605373650014876
182.19890077033457,-1.3078957782599046,33.6123279924398
182.44890077033457,-1.3054273111497976,33.61755613836345
182.69890077033457,-1.302226886010243,33.623041935444995
182.94890077033457,-1.2991176013031431,33.629420072624285
183.19890077033457,-1.2954146781981664,33.63431746867479
183.44890077033457,-1.2920023911591938,33.64015541278046
183.69890077033457,-1.289015905016932,33.64636261641349
183.94890077033457,-1.2861260131249994,33.651322206198934
184.19890077033457,-1.2835165471405134,33.65653337334597
184.44890077033457,-1.2804821277216922,33.662126127367976
184.69890077033457,-1.2765393473404236,33.66851545292498
184.94890077033457,-1.2728924574476792,33.67515949836533
185.19890077033457,-1.270145641214977,33.68108869334738
185.44890077033457,-1.2672052385019812,33.68614494974294
185.69890077033457,-1.2637950736504187,33.6910392619223
185.94890077033457,-1.2607793705499726,33.69612793766687
186.19890077033457,-1.2573897593248151,33.701376350980695
186.44890077033457,-1.25211418087383,33.70882973615997
186.69890077033457,-1.2456172536087047,33.71938720467498
186.94890077033457,-1.240616723485001,33.72832995660856
187.19890077033457,-1.235380767873917,33.73447111226562
187.44890077033457,-1.2303527299687578,33.74218336047055
187.69890077033457,-1.2264471907128425,33.74957318301691
187.94890077033457,-1.2228255808259694,33.75427492718804
188.19890077033457,-1.2184361797132854,33.76058814585236
188.44890077033457,-1.2148281087142083,33.76599722256302
188.69890077033457,-1.2110815835778892,33.77064248768819
188.94890077033457,-1.2072692224664903,33.77499366367381
189.19890077033457,-1.2034701212363,33.77958727818256
189.44890077033457,-1.198863904604694,33.78506237581596
189.69890077033457,-1.1953150667427035,33.78957866782941
189.94890077033457,-1.1929298342950942,33.79385727147554
190.19890077033457,-1.1900678238975222,33.79723506832108
190.44890077033457,-1.1862447712276691,33.80042390251548
190.69890077033457,-1.1824642200920759,33.80638332494501
190.94890077033457,-1.1775629011227948,33.81278271466747
191.19890077033457,-1.1734739662945057,33.82028756752443
191.44890077033457,-1.1696866335915497,33.825690445105465
191.69890077033457,-1.164835434990384,33.829701492859655
191.94890077033457,-1.1596463734338747,33.83777112969507
192.19890077033457,-1.1548914012876743,33.844999395301734
192.44890077033457,-1.1518522969655318,33.84944134022926
192.69890077033457,-1.1493240279411372,33.85161691502551
192.94890077033457,-1.1459874423063685,33.855497541449814
193.19890077033457,-1.142168054329875,33.86211312166925
193.44890077033457,-1.138435069682033,33.864949266902535
193.69890077033457,-1.1345307919682188,33.86897815631085
193.94890077033457,-1.1287511964630765,33.876346330385275
194.19890077033457,-1.1216747411674177,33.885531471667264
194.44890077033457,-1.1157035406770217,33.89397357628136
194.69890077033457,-1.1112519209687268,33.8996190506888
194.94890077033457,-1.1069141425006455,33.90363815756855
195.19890077033457,-1.1039769769743546,33.90778159509817
195.44890077033457,-1.1015283327034033,33.911690775471186
195.69890077033457,-1.0981888271632458,33.91499788379919
195.94890077033457,-1.0956307780740786,33.918939414077165
196.19890077033457,-1.0922944268361845,33.92166496137713
196.44890077033457,-1.088930679897994,33.925032786544506
196.69890077033457,-1.085779754419126,33.929198496440215
196.94890077033457,-1.0820545940710735,33.93320356929815
197.19890077033457,-1.0778050277733198,33.93775659481637
197.44890077033457,-1.073938613522246,33.9424855544679
197.69890077033457,-1.0699400201321558,33.94720434811501
197.94890077033457,-1.0662718481627933,33.95176091768993
198.19890077033457,-1.0635268714474306,33.955094715320755
198.44890077033457,-1.0611498126901695,33.95685394458975
198.69890077033457,-1.0586306169351531,33.96004278666669
198.94890077033457,-1.0557667048205732,33.96346201930874
199.19890077033457,-1.0525400365390558,33.967608455172225
199.44890077033457,-1.0482504697039885,33.972467543785115
199.69890077033457,-1.0427037458275523,33.976890744901105
199.94890077033457,-1.0382759877783367,33.98343441394369
200.19890077033457,-1.0339982712710185,33.98957398072833
200.44890077033457,-1.0302072482859521,33.995137368341396
200.69890077033457,-1.0264485246533135,34.00049096290465
200.94890077033457,-1.0212230541781568,34.00491961642918
201.19890077033457,-1.0167133562359727,34.01033873395065
201.44890077033457,-1.012922915235857,34.015494196161214
201.69890077033457,-1.009591864664374,34.019635059325154
201.94890077033457,-1.0067310074544302,34.02304977828101
202.19890077033457,-1.0041543247263716,34.02598331961352
202.44890077033457,-1.0015771059078995,34.0286572936425
202.69890077033457,-0.9988187355161623,34.03143172646629
202.94890077033457,-0.9961067810700989,34.03472972415749
203.19890077033457,-0.9934038008441517,34.038753467302605
203.44890077033457,-0.9900503961812129,34.043145280566016
203.69890077033457,-0.9861507767205595,34.04700983176916
203.94890077033457,-0.9827414379742401,34.050511629270595
204.19890077033457,-0.9796845949607762,34.0538247927556
204.44890077033457,-0.9764744125418702,34.05710431148501
204.69890077033457,-0.9737664840597686,34.06087900240322
204.94890077033457,-0.9699899466204521,34.06420773285869
205.19890077033457,-0.9667383261816607,34.068274293299694
205.44890077033457,-0.9632511514171914,34.07186145638498
205.69890077033457,-0.9579847491386493,34.074098578249405
205.94890077033457,-0.9543900987048932,34.07918813825521
206.19890077033457,-0.9516928590314147,34.083711216687476
206.44890077033457,-0.949457925008674,34.08741250408066
206.69890077033457,-0.9472903280257597,34.0912902274402
206.94890077033457,-0.9441717378453381,34.09530635081597
207.19890077033457,-0.939707770698039,34.10003953448926
207.44890077033457,-0.9346331421474272,34.104269808312566
207.69890077033457,-0.9306758971413103,34.10978700367526
207.94890077033457,-0.9280198009225569,34.115708153446086
208.19890077033457,-0.924980747257058,34.11979373076167
208.44890077033457,-0.9206566522581048,34.1257011609609
208.69890077033457,-0.9153318589660098,34.130688816779085
208.94890077033457,-0.9098345008796199,34.13554706076306
209.19890077033457,-0.9046941571285574,34.140931225035715
209.44890077033457,-0.8996268195213181,34.14521365729988
209.69890077033457,-0.8940618649085008,34.14858656950752
209.94890077033457,-0.888789767914738,34.15388000906391
210.19890077033457,-0.8839822869114682,34.15764968818907
210.44890077033457,-0.8799999542991418,34.159111591200286
210.69890077033457,-0.8765398260643839,34.16098949588065
210.94890077033457,-0.8718794976170616,34.16319812583532
211.19890077033457,-0.8675262691858848,34.16795162664855
211.44890077033457,-0.8638964090298611,34.17117092608174
211.69890077033457,-0.8602551864800009,34.172349198438894
211.94890077033457,-0.856290567660369,34.17657690183097
212.19890077033457,-0.852867043689226,34.18188006856323
212.44890077033457,-0.8510122356139187,34.18321366581182
212.69890077033457,-0.8492182687268419,34.18279224555391
212.94890077033457,-0.8457560640554403,34.1851509176814
213.19890077033457,-0.8409028044814567,34.189463513098666
213.44890077033457,-0.8356140281635621,34.19209391401653
213.69890077033457,-0.8332705059708185,34.19285465804861
213.94890077033457,-0.8326999526266934,34.19307940939247
214.19890077033457,-0.8312576957937703,34.194270005489294
214.44890077033457,-0.8282452133559578,34.197463651548944
214.69890077033457,-0.8231850252456802,34.20198580959652
214.94890077033457,-0.8183133505180797,34.20497090896395
215.19890077033457,-0.8141163056925598,34.20750404302246
215.44890077033457,-0.8106587482167439,34.21148817119754
215.69890077033457,-0.8083052721938149,34.21510135936496
215.94890077033457,-0.8062321084897405,34.215493321550916
216.19890077033457,-0.8024560693424907,34.21994331304281
216.44890077033457,-0.799262947484698,34.224926056578454
216.69890077033457,-0.7980149658151414,34.22599412414606
216.94890077033457,-0.796464252079615,34.22573894199176
217.19890077033457,-0.7921875956976119,34.22796418659155
217.44890077033457,-0.784695316847002,34.23251190216256
217.69890077033457,-0.7787058339605467,34.237044273790396
217.94890077033457,-0.7761395669809266,34.238398943016
218.19890077033457,-0.7722408727247404,34.23712372338489
218.44890077033457,-0.7661352077693778,34.241840061085945
218.69890077033457,-0.7604469403944218,34.24705891637549
218.94890077033457,-0.7577349169104984,34.24893098465754
219.19890077033457,-0.7548470526630241,34.24971941666512
219.44890077033457,-0.7469232228553364,34.25267778467408
219.69890077033457,-0.7409298492960752,34.25882073191153
219.94890077033457,-0.738205859371238,34.260773462237154
220.19890077033457,-0.7374769813302314,34.259736846879704
220.44890077033457,-0.736305249045062,34.260643276003805
220.69890077033457,-0.7314611665015853,34.26246047626588
220.94890077033457,-0.7246669511153161,34.27007055565693
221.19890077033457,-0.7198889583433921,34.27412452109848
221.44890077033457,-0.7187625132704089,34.27152365789931
221.69890077033457,-0.7159045745515548,34.27179683289312
221.94890077033457,-0.7035412035419372,34.27761328504575
222.19890077033457,-0.696550245908639,34.28333153033012
222.44890077033457,-0.6946385738363967,34.28567470097916
222.69890077033457,-0.6927689304990479,34.283353444229775
222.94890077033457,-0.6864386688901731,34.28369478342092
223.19890077033457,-0.6704624712545595,34.296663708484715
223.44890077033457,-0.6645801718770488,34.298890739581815
223.69890077033457,-0.6637844141792612,34.2976478663673
223.94890077033457,-0.6632296502745149,34.29768982965397
224.19890077033457,-0.659708987452911,34.298818480913255
224.44890077033457,-0.6466501103929924,34.30762786361251
224.69890077033457,-0.6414507447712033,34.311581342732865
224.94890077033457,-0.6405436130370947,34.31151993958813
225.19890077033457,-0.6398866996506536,34.31129333166317
225.44890077033457,-0.6376613744327869,34.31210423113242
225.69890077033457,-0.6262677590083569,34.31665532922798
225.94890077033457,-0.6192481025880415,34.323514461330475
226.19890077033457,-0.6169950106044209,34.32593454282195
226.44890077033457,-0.6165155858938002,34.32563664092349
226.69890077033457,-0.6151955695128501,34.32561098641624
226.94890077033457,-0.6081620728388126,34.32336583602577
227.19890077033457,-0.6018475089007862,34.33322886871842
227.44890077033457,-0.598939660496152,34.338899535058566
227.69890077033457,-0.59760876875243,34.33634688430958
227.94890077033457,-0.5963173903388534,34.33708274758211
228.19890077033457,-0.5950629840854226,34.336364220719794
228.44890077033457,-0.5861083975729544,34.3422467134386
228.69890077033457,-0.5785104974127383,34.34832908934488
228.94890077033457,-0.5788792755309307,34.34771050106874
229.19890077033457,-0.5780275997984122,34.347397242286874
229.44890077033457,-0.577702912908459,34.348364751274204
229.69890077033457,-0.5741558864304017,34.34605738796945
229.94890077033457,-0.5660826914048109,34.34917161545422
230.19890077033457,-0.5588995682036301,34.36010223378297
230.44890077033457,-0.5578503704760293,34.35965238209055
230.69890077033457,-0.5576679986412953,34.358849783691774
230.94890077033457,-0.5567224674968763,34.3593957677661
231.19890077033457,-0.5568751073532471,34.35945863598667
231.44890077033457,-0.5554811708732104,34.36036561744312
231.69890077033457,-0.5459253210343813,34.36284261418001
231.94890077033457,-0.5391117608852938,34.36808946208947
232.19890077033457,-0.5379837413386764,34.37124492548191
232.44890077033457,-0.5384384004552135,34.37110698639071
232.69890077033457,-0.5375338553249152,34.371195607655046
232.94890077033457,-0.5362490905590428,34.3709766146963
233.19890077033457,-0.5356026173319283,34.37224155653269
233.44890077033457,-0.5328072661903677,34.36999232036231
233.69890077033457,-0.5236514934565749,34.37063053110963
233.94890077033457,-0.5114706957307094,34.38239527235186
234.19890077033457,-0.5094912133935415,34.383332343780815
234.44890077033457,-0.5096218947899334,34.382207303591656
234.69890077033457,-0.5084916627145256,34.38234216976664
234.94890077033457,-0.5079911494555613,34.38265343056517
235.19890077033457,-0.5066456006657468,34.38247889242762
235.44890077033457,-0.500128040068987,34.379282651221445
235.69890077033457,-0.48825142557345913,34.38975621950408
235.94890077033457,-0.48257509856595077,34.3961217152387
236.19890077033457,-0.48322661355023244,34.39360231703073
236.44890077033457,-0.48191009035060844,34.39393981711038
236.69890077033457,-0.4803663287035061,34.393718171358806
236.94890077033457,-0.4811107482981148,34.393513376016664
237.19890077033457,-0.47149979312852885,34.39630550408818
237.44890077033457,-0.45952629410989326,34.40199438676727
237.69890077033457,-0.4583792884964922,34.40594413776278
237.94890077033457,-0.4563903955105998,34.40428964646619
238.19890077033457,-0.45432620309787664,34.40319503725757
238.44890077033457,-0.4552053213701982,34.40509567421264
238.69890077033457,-0.45076924036569527,34.403787212373594
238.94890077033457,-0.436349141249125,34.40192524640412
239.19890077033457,-0.42734835062180254,34.415112407392
239.44890077033457,-0.42549664306427654,34.41873651666705
239.69890077033457,-0.4254403899678133,34.41638188319605
239.94890077033457,-0.4245418806246743,34.41675590916748
240.19890077033457,-0.42359354434438146,34.41637030103156
240.44890077033457,-0.4223669173869965,34.41593663301041
240.69890077033457,-0.4226863211971958,34.41757675877474
240.94890077033457,-0.41748254247851874,34.41384704889101
241.19890077033457,-0.40433394672790246,34.413764863276796
241.44890077033457,-0.39280655667357794,34.428630971838
241.69890077033457,-0.3907429967365652,34.42944284562123
241.94890077033457,-0.39060532074855564,34.4275364634149
242.19890077033457,-0.3895094315007279,34.42789044312558
242.44890077033457,-0.38851358057337276,34.42800916767931
242.69890077033457,-0.3872381824708623,34.42847799426535
242.94890077033457,-0.38477120574998774,34.42552629766712
243.19890077033457,-0.3691599186696754,34.43398984903332
243.44890077033457,-0.3562033416428618,34.4428982019404
243.69890077033457,-0.3570035300836565,34.441168396271344
243.94890077033457,-0.3556573323217168,34.440965682101776
244.19890077033457,-0.35460425393093387,34.44072998761598
244.44890077033457,-0.3539929408007417,34.44018351268886
244.69890077033457,-0.3531135265577564,34.4408791176569
244.94890077033457,-0.3521182050167444,34.44080407911237
245.19890077033457,-0.3482252792771488,34.4374891816364
245.44890077033457,-0.3319402262984466,34.44730846318055
245.69890077033457,-0.3196724599932923,34.45567007672675
245.94890077033457,-0.32043399019694885,34.45261135308226
246.19890077033457,-0.32001565802011717,34.4527825187881
246.44890077033457,-0.3188176858613958,34.45370783272802
246.69890077033457,-0.3175603629644915,34.45346402639443
246.94890077033457,-0.31640367572161765,34.45389138461574
247.19890077033457,-0.3155047835298525,34.45369376935512
247.44890077033457,-0.3108269261932677,34.450772402870435
247.69890077033457,-0.29205569002729803,34.46208161872059
247.94890077033457,-0.28307419033358006,34.468470863834064
248.19890077033457,-0.28538498527447065,34.4665774369981
248.44890077033457,-0.28460836055959593,34.46738123150612
248.69890077033457,-0.2843021716201131,34.467058197596785
248.94890077033457,-0.2836654036986432,34.466883744871375
249.19890077033457,-0.28290062427322615,34.4669039910343
249.44890077033457,-0.2821022152882039,34.466775839221775
249.69890077033457,-0.2812341853024685,34.46640552961959
249.94890077033457,-0.2801741471814111,34.465859206156466
250.19890077033457,-0.2783795313156224,34.46574502454072
250.44890077033457,-0.279076101625992,34.467211693371624
250.69890077033457,-0.2714304771801345,34.4665508422178
250.94890077033457,-0.2517705822755742,34.467740219634166
251.19890077033457,-0.2395822477517426,34.4812614150205
251.44890077033457,-0.23738450337946687,34.48564736408547
251.69890077033457,-0.23743033376404404,34.48355049544449
251.94890077033457,-0.23590920790702358,34.483263878721296
252.19890077033457,-0.23512366698824266,34.483180228086844
252.44890077033457,-0.23438507967808017,34.48303495931798
252.69890077033457,-0.23343284285060764,34.48254867149126
252.94890077033457,-0.23201253834584074,34.482863666613504
253.19890077033457,-0.2308802797592952,34.48274233754311
