Depth,Temperature,Salinity
159.57642804489328,-1.4491588009964194,33.29695537848557
159.82642804489328,-1.4490112169806626,33.30308076115265
160.07642804489328,-1.4482676352558383,33.307617543522674
160.32642804489328,-1.4477290754085197,33.312186814169934
160.57642804489328,-1.4472544783747623,33.317140888371384
160.82642804489328,-1.4462879425860522,33.322374775575646
161.07642804489328,-1.445413826118255,33.32887352564796
161.32642804489328,-1.4446478661402362,33.334012638757784
161.57642804489328,-1.443818555022964,33.338327272785975
161.82642804489328,-1.4426498516339021,33.343665578318195
162.07642804489328,-1.4410079638245514,33.34925952569491
162.32642804489328,-1.4394973052750877,33.3534304527238
162.57642804489328,-1.4382940432863125,33.359246213849985
162.82642804489328,-1.4375031221369494,33.36644444209375
163.07642804489328,-1.43701195305098,33.37405632585274
163.32642804489328,-1.4359556161459017,33.384403356490445
163.57642804489328,-1.432938986230377,33.39484739757088
163.82642804489328,-1.4286583545933607,33.40494454410514
164.07642804489328,-1.4246668997797436,33.41484402766516
164.32642804489328,-1.4215748985537382,33.42377583926901
164.57642804489328,-1.4187193503324371,33.43119443061148
164.82642804489328,-1.4162026254704914,33.438219128988955
165.07642804489328,-1.4136810400938795,33.44541908250446
165.32642804489328,-1.4107486877992303,33.45227167318611
165.57642804489328,-1.4075424195946018,33.458295018891626
165.82642804489328,-1.4045792812582563,33.46438079600331
166.07642804489328,-1.4020057470724,33.470832587137934
166.32642804489328,-1.3996946116422524,33.477417574520715
166.57642804489328,-1.3971389366493376,33.48362013711998
166.82642804489328,-1.3939161481140967,33.489165833994655
167.07642804489328,-1.390849498566276,33.49470231765268
167.32642804489328,-1.387974637622305,33.50007438734746
167.57642804489328,-1.385118601627058,33.505033403984214
167.82642804489328,-1.3823432395665318,33.50965484372315
168.07642804489328,-1.379783625279229,33.51408941121998
168.32642804489328,-1.3774514201104113,33.518403716646475
168.57642804489328,-1.3747491511573726,33.52274506537627
168.82642804489328,-1.3717461117565586,33.52754217730394
169.07642804489328,-1.3690018130370127,33.5331170175411
169.32642804489328,-1.3659457123528038,33.53905855222738
169.57642804489328,-1.3620785735630216,33.54511113319163
169.82642804489328,-1.3578442493164402,33.55239847851075
170.07642804489328,-1.353254064829035,33.56085864715363
170.32642804489328,-1.347826778645855,33.56872686367114
170.57642804489328,-1.3431350833193083,33.576762201832274
170.82642804489328,-1.3387014166345395,33.58369184805835
171.07642804489328,-1.3343364332568728,33.58956085160116
171.32642804489328,-1.3304301310515847,33.595516226075134
171.57642804489328,-1.3265279301197463,33.60139463705795
171.82642804489328,-1.3222781315536056,33.607621880835396
172.07642804489328,-1.318095483279448,33.61452481900454
172.32642804489328,-1.3142112318805412,33.62128283862827
172.57642804489328,-1.310338858361361,33.62700503189262
172.82642804489328,-1.3063739356206139,33.63273870051187
173.07642804489328,-1.3024428047232486,33.63905663030568
173.32642804489328,-1.2981918257720049,33.6455367291509
173.57642804489328,-1.2937166422410646,33.65213574415079
173.82642804489328,-1.2894298538056403,33.659622706249536
174.07642804489328,-1.284212750684942,33.66801346698407
174.32642804489328,-1.2785558633514853,33.6773343353778
174.57642804489328,-1.2725909936676385,33.686213343029586
174.82642804489328,-1.2664445285898478,33.69371873248893
175.07642804489328,-1.261193240268758,33.7010612339018
175.32642804489328,-1.2564717133587882,33.70795324427918
175.57642804489328,-1.2522041101718144,33.71402736918515
175.82642804489328,-1.2481245117463708,33.71995403864796
176.07642804489328,-1.2439026450605213,33.72633711325835
176.32642804489328,-1.239876490046716,33.73230516765819
176.57642804489328,-1.2354410321227336,33.73886754514835
176.82642804489328,-1.231152886332919,33.745084775266896
177.07642804489328,-1.2273129289928213,33.75051396481872
177.32642804489328,-1.2231977122076627,33.75637165111903
177.57642804489328,-1.2190779088322745,33.76191071872032
177.82642804489328,-1.21532724621813,33.767467305365685
178.07642804489328,-1.2116192342965157,33.77344327561678
178.32642804489328,-1.2077817210535757,33.77981670606455
178.57642804489328,-1.2041509294271178,33.786170549526
178.82642804489328,-1.1998595849637748,33.79163165562858
179.07642804489328,-1.1957474692477132,33.79777686468282
179.32642804489328,-1.1917384518516272,33.80501193389133
179.57642804489328,-1.187275503450351,33.8119986951823
179.82642804489328,-1.1836628796892485,33.8179890782447
180.07642804489328,-1.1808152445188067,33.821948529635215
180.32642804489328,-1.1780155593360173,33.82560111565145
180.57642804489328,-1.1748806246195538,33.830466667597804
180.82642804489328,-1.1712452189453206,33.83645466152187
181.07642804489328,-1.166560236262196,33.8442494559964
181.32642804489328,-1.1618124749858512,33.85262899408034
181.57642804489328,-1.1570974809576597,33.86025059826983
181.82642804489328,-1.152571317930273,33.86711533510084
182.07642804489328,-1.1492481843210633,33.873978711728775
182.32642804489328,-1.1461178537079113,33.880203792684746
182.57642804489328,-1.1421695049900742,33.887276368029646
182.82642804489328,-1.1374631490275868,33.894749874886344
183.07642804489328,-1.1331839349602428,33.901183600660985
183.32642804489328,-1.130306995433865,33.907685504466876
183.57642804489328,-1.1269756826813515,33.91352955359917
183.82642804489328,-1.1240815482730633,33.918580339573516
184.07642804489328,-1.1221564777944442,33.92299740475139
184.32642804489328,-1.1198703231220706,33.92683119052655
184.57642804489328,-1.1175360833753665,33.93072100999495
184.82642804489328,-1.1148380313683721,33.93487685481567
185.07642804489328,-1.112280111994228,33.93867835682344
185.32642804489328,-1.1102444085986465,33.94180832560183
185.57642804489328,-1.107935450700734,33.94517198732431
185.82642804489328,-1.1052621019984814,33.94968551585155
186.07642804489328,-1.1026201368124608,33.95448786500446
186.32642804489328,-1.0999168988178696,33.958920961266884
186.57642804489328,-1.0969320775153268,33.96334192207165
186.82642804489328,-1.0941677883871712,33.96810248099539
187.07642804489328,-1.091452891215949,33.97300931473547
187.32642804489328,-1.0880436511282405,33.97837571646805
187.57642804489328,-1.0842722727390128,33.983331826098805
187.82642804489328,-1.0817368021893745,33.98669610784258
188.07642804489328,-1.0809640844938961,33.99053819672742
188.32642804489328,-1.0798409461950353,33.99498216542244
188.57642804489328,-1.077591592694359,34.00059063089173
188.82642804489328,-1.07452992698952,34.007062693364404
189.07642804489328,-1.0704768484386786,34.012576202250266
189.32642804489328,-1.0663646141695606,34.01896466595885
189.57642804489328,-1.0627151245894761,34.02489079210112
189.82642804489328,-1.0595726366117093,34.02916786748526
190.07642804489328,-1.0567204317784635,34.03304514927774
190.32642804489328,-1.0537504707186012,34.03798876604168
190.57642804489328,-1.050338461504331,34.042694737533594
190.82642804489328,-1.046632184063463,34.04703468439963
191.07642804489328,-1.043857740740992,34.05148510443618
191.32642804489328,-1.0431777834395823,34.05577774107253
191.57642804489328,-1.0428597288518229,34.060049400023495
191.82642804489328,-1.041528207377714,34.06500161857437
192.07642804489328,-1.0389297539345772,34.069607526929985
192.32642804489328,-1.035808832810806,34.07305026069365
192.57642804489328,-1.0331027257984482,34.07715792949925
192.82642804489328,-1.0302627304131549,34.08187893607847
193.07642804489328,-1.0269224855194115,34.08600643666543
193.32642804489328,-1.0234302483615947,34.08971542184115
193.57642804489328,-1.0199964079869432,34.094191820968895
193.82642804489328,-1.0158050866185477,34.098467011933224
194.07642804489328,-1.0121236658817445,34.101864051447954
194.32642804489328,-1.0091176335947178,34.10504419631492
194.57642804489328,-1.0060768260877107,34.108903182652334
194.82642804489328,-1.003118105823493,34.1128795242636
195.07642804489328,-0.999872796225956,34.11537130355458
195.32642804489328,-0.9958547566073038,34.11965720816631
195.57642804489328,-0.9916681741797528,34.125771142267425
195.82642804489328,-0.9883467444206018,34.129166501115876
196.07642804489328,-0.9852124894470281,34.130486420243614
196.32642804489328,-0.9816994004568196,34.13351290016687
196.57642804489328,-0.9767791980462945,34.13836646173831
196.82642804489328,-0.9709598352426572,34.142525243178056
197.07642804489328,-0.9668473054083468,34.14469169653779
197.32642804489328,-0.9642644555632144,34.14545412930444
197.57642804489328,-0.9584953841750709,34.14896320394502
197.82642804489328,-0.9501274113888042,34.1550422606628
198.07642804489328,-0.9442585279180251,34.15916776781721
198.32642804489328,-0.9414630594141324,34.15980973632031
198.57642804489328,-0.9375035096878388,34.161527634841555
198.82642804489328,-0.9324988065644536,34.166323846762246
199.07642804489328,-0.9286701173873131,34.170511800207066
199.32642804489328,-0.9259006376358091,34.170873120804835
199.57642804489328,-0.9216035407509124,34.17395896285177
199.82642804489328,-0.9148672811458352,34.17911828589536
200.07642804489328,-0.9090303542518462,34.183253545419944
200.32642804489328,-0.9065384265145576,34.185114517402454
200.57642804489328,-0.9046132710968424,34.18540677064964
200.82642804489328,-0.9025645647820228,34.18535350286701
201.07642804489328,-0.898072574285246,34.18879047291886
201.32642804489328,-0.8931547414681864,34.19291070218727
201.57642804489328,-0.8893671752812903,34.19395390438998
201.82642804489328,-0.8789148783487509,34.20059364203864
202.07642804489328,-0.8728276616598668,34.20504748109203
202.32642804489328,-0.8720229761697295,34.205225755808776
202.57642804489328,-0.8711151809065212,34.205055084366975
202.82642804489328,-0.8699063311196458,34.206051628695626
203.07642804489328,-0.8636004519970009,34.20995847010505
203.32642804489328,-0.8580316714474985,34.21388325738273
203.57642804489328,-0.8563245076911769,34.21532104347239
203.82642804489328,-0.854565658803869,34.21586146977261
204.07642804489328,-0.8505550657009116,34.219194203916835
204.32642804489328,-0.8431856358870172,34.2234696879993
204.57642804489328,-0.8363839813701982,34.22575537730133
204.82642804489328,-0.8340334458938568,34.22580227642729
205.07642804489328,-0.8330346004554462,34.22639592162528
205.32642804489328,-0.8250211967049667,34.229719071086755
205.57642804489328,-0.8167249583081913,34.23441950149568
205.82642804489328,-0.8131154889517923,34.23717476986835
206.07642804489328,-0.8115679211365739,34.23692259525978
206.32642804489328,-0.8106860072151542,34.23709011190356
206.57642804489328,-0.8075969749361152,34.238193685363484
206.82642804489328,-0.7983137971360019,34.24255618775248
207.07642804489328,-0.7874038601578071,34.24797867435026
207.32642804489328,-0.7851354034413082,34.248360654522315
207.57642804489328,-0.7852609484465747,34.24880163329557
207.82642804489328,-0.779905739404714,34.25147744810286
208.07642804489328,-0.7703118985040072,34.2557534848729
208.32642804489328,-0.7635407072644934,34.2594312281334
208.57642804489328,-0.7618715346120395,34.260008819834376
208.82642804489328,-0.7608787778727921,34.260200971367205
209.07642804489328,-0.761446707813241,34.26065507045244
209.32642804489328,-0.7581804092331113,34.26365904094439
209.57642804489328,-0.7449272261714904,34.271096533730734
209.82642804489328,-0.7407411655304781,34.27436875163079
210.07642804489328,-0.74063722881587,34.2743296208825
210.32642804489328,-0.7387891081061501,34.27393974586073
210.57642804489328,-0.7378251174397535,34.273983494384446
210.82642804489328,-0.7379503286089283,34.27502400773574
211.07642804489328,-0.7293132923070781,34.27905373709035
211.32642804489328,-0.7192825597682859,34.283368902731446
211.57642804489328,-0.7161236651437466,34.285056547214175
211.82642804489328,-0.7148623478530354,34.28551499191977
212.07642804489328,-0.7078360499703593,34.288695512055575
212.32642804489328,-0.6976010133163199,34.293951100409544
212.57642804489328,-0.6910685124294993,34.29748165771591
212.82642804489328,-0.6903564202197392,34.297453585675484
213.07642804489328,-0.6898070739139321,34.29690718998181
213.32642804489328,-0.6878106654196356,34.297510731434436
213.57642804489328,-0.6873253862932712,34.298064932894775
213.82642804489328,-0.6826568468251346,34.300740486030904
214.07642804489328,-0.6680533071913425,34.30802103277893
214.32642804489328,-0.6630913758015404,34.31136433325712
214.57642804489328,-0.6626717856418088,34.31136110178901
214.82642804489328,-0.6613621906831321,34.31087011359491
215.07642804489328,-0.6605122489538011,34.31096715713833
215.32642804489328,-0.6597232782515866,34.31157214558172
215.57642804489328,-0.6568191245885107,34.31206184268389
215.82642804489328,-0.646460728820545,34.317008752053766
216.07642804489328,-0.6358197334904804,34.32357992188308
216.32642804489328,-0.6353554041395619,34.32454708894679
216.57642804489328,-0.6346891390638644,34.324348191481896
216.82642804489328,-0.6334622508254908,34.3247708233294
217.07642804489328,-0.6324129492996309,34.32495245542894
217.32642804489328,-0.6262477008819934,34.326842730695176
217.57642804489328,-0.6114291718005859,34.33392198844377
217.82642804489328,-0.6064490701000698,34.33757049542833
218.07642804489328,-0.6070806789656872,34.33776270399835
218.32642804489328,-0.6059673597666614,34.3375253995564
218.57642804489328,-0.6051727890547246,34.33732822913703
218.82642804489328,-0.6033795479577221,34.33771661960379
219.07642804489328,-0.6032655414407829,34.337571270432136
219.32642804489328,-0.5956355273548479,34.34126535227533
219.57642804489328,-0.5807649820427797,34.348099126275365
219.82642804489328,-0.5770776029810339,34.34865860451616
220.07642804489328,-0.5719327471559971,34.34959829486746
220.32642804489328,-0.5608108879820056,34.35340923784442
220.57642804489328,-0.5520105948536254,34.35702912218168
220.82642804489328,-0.5515790745328032,34.357871793107996
221.07642804489328,-0.551052921911307,34.35792796603458
221.32642804489328,-0.550128198901593,34.35786579417846
221.57642804489328,-0.5492093708643532,34.35816394906932
221.82642804489328,-0.5483201541509978,34.358400835723984
222.07642804489328,-0.5453963581801912,34.35874435254373
222.32642804489328,-0.5298964735188141,34.364938859665195
222.57642804489328,-0.5200927820934206,34.37056245514634
222.82642804489328,-0.5215483622463446,34.37143778641026
223.07642804489328,-0.5205469356019933,34.37124852528275
223.32642804489328,-0.5199634157531015,34.37144254191955
223.57642804489328,-0.5183579666385726,34.371415615460016
223.82642804489328,-0.5189227904249547,34.37137807270037
224.07642804489328,-0.5155457263169153,34.37369412398862
224.32642804489328,-0.49719171943370793,34.37960674917121
224.57642804489328,-0.4910015553546569,34.38282545653956
224.82642804489328,-0.49155466241898843,34.383232361027275
225.07642804489328,-0.4901747117645189,34.38284661829077
225.32642804489328,-0.4893431798418788,34.382553913379724
225.57642804489328,-0.48802269246235447,34.38296301166967
225.82642804489328,-0.48761133672373763,34.38361808787498
226.07642804489328,-0.4773599087947873,34.38725372017522
226.32642804489328,-0.4615179593024262,34.393253870156684
226.57642804489328,-0.4608235520957528,34.39592481009908
226.82642804489328,-0.46068298308186745,34.395679489192304
227.07642804489328,-0.4593526688494077,34.39508300395671
227.32642804489328,-0.4591256169007017,34.39530253661997
227.57642804489328,-0.45849265998544736,34.39561345466205
227.82642804489328,-0.456896003742917,34.39522653030087
228.07642804489328,-0.4569785066192196,34.39533406383267
228.32642804489328,-0.44819350716353856,34.398363636939926
228.57642804489328,-0.4335350159835893,34.40310761454565
228.82642804489328,-0.4328463119426903,34.404989181037905
229.07642804489328,-0.432864817312404,34.4049877973713
229.32642804489328,-0.43183631178547643,34.404752278202245
229.57642804489328,-0.43077661519249416,34.404848916161036
229.82642804489328,-0.4295217857536508,34.40511790183427
230.07642804489328,-0.42916795968810684,34.40624635786446
230.32642804489328,-0.41248336249097955,34.411150154860856
230.57642804489328,-0.3984770866741775,34.416667543860456
230.82642804489328,-0.40066899834936026,34.418786573820746
231.07642804489328,-0.4000736480288006,34.41848515828005
231.32642804489328,-0.39921215033626567,34.418282126207366
231.57642804489328,-0.3985719182145083,34.418155344498196
231.82642804489328,-0.39762253211145987,34.417738700826185
232.07642804489328,-0.3966602647306126,34.417585056109736
232.32642804489328,-0.395412376612388,34.41811585992954
232.57642804489328,-0.3942715959185379,34.41810459267957
232.82642804489328,-0.38254824496759937,34.42141336447659
233.07642804489328,-0.3660998280379358,34.4276653874337
233.32642804489328,-0.3656331710669406,34.43005845425782
233.57642804489328,-0.36585604494845597,34.42994198544081
233.82642804489328,-0.36469933706516033,34.42961218843492
234.07642804489328,-0.36429483317386885,34.42965203006329
234.32642804489328,-0.3631902052002985,34.42954812097483
234.57642804489328,-0.36119595585466274,34.42936381371682
234.82642804489328,-0.3626775203230003,34.4300384522679
235.07642804489328,-0.35213081574290744,34.43466082448743
235.32642804489328,-0.3316333395787585,34.44156134668273
235.57642804489328,-0.3295051540691415,34.44397415368362
235.82642804489328,-0.3291791685283729,34.44393876562213
236.07642804489328,-0.3276137987834528,34.44333623039078
236.32642804489328,-0.32722703742379494,34.4429494917149
236.57642804489328,-0.32636798469029216,34.44288420386555
236.82642804489328,-0.3250360765409237,34.44269612645074
237.07642804489328,-0.3260692518064915,34.44355149820113
237.32642804489328,-0.32092410621441936,34.44619182695228
237.57642804489328,-0.30679259590341174,34.45045752226108
237.82642804489328,-0.29657971642822917,34.454910491100094
238.07642804489328,-0.2938472240757626,34.45624560655311
238.32642804489328,-0.29383333758194624,34.456061584572076
238.57642804489328,-0.29344361589271567,34.45624783622121
238.82642804489328,-0.2931326761354268,34.45653016411811
239.07642804489328,-0.29235141785787133,34.456315014221595
239.32642804489328,-0.29140845361437584,34.4559846053536
239.57642804489328,-0.29083845059473634,34.4564519396493
239.82642804489328,-0.2895187895698702,34.4574761276372
240.07642804489328,-0.28349727421860504,34.458748358239454
240.32642804489328,-0.2694818394720023,34.463913164538
240.57642804489328,-0.26236393506718064,34.469077353446565
240.82642804489328,-0.26400172084545176,34.47068378284744
241.07642804489328,-0.2629136749222962,34.470033176063296
241.32642804489328,-0.26282922850282875,34.46973449231281
241.57642804489328,-0.2629082395428772,34.47038877375971
241.82642804489328,-0.26221537022100233,34.47076832947561
242.07642804489328,-0.2612864587561991,34.4702932995705
242.32642804489328,-0.2604376500655182,34.47013595679401
242.57642804489328,-0.2597486725091833,34.46964403672825
242.82642804489328,-0.2592629094892028,34.46928016428147
243.07642804489328,-0.2582040084744993,34.46924897900402
243.32642804489328,-0.2570509943508385,34.469217718266734
243.57642804489328,-0.2583210643061105,34.47069182516246
243.82642804489328,-0.2478964148941955,34.47560476324183
244.07642804489328,-0.23140880876789677,34.480821852449864
244.32642804489328,-0.22432357280389528,34.4830203916903
244.57642804489328,-0.22410052020242138,34.48431176456837
244.82642804489328,-0.2242210525712937,34.48448726690318
245.07642804489328,-0.22335673078141705,34.48418363946904
245.32642804489328,-0.22250418343957806,34.48407307514949
245.57642804489328,-0.2212879755387812,34.48402742159049
245.82642804489328,-0.21913014079749227,34.48406290832978
246.07642804489328,-0.22010061543372905,34.484372408069014
246.32642804489328,-0.20983126466342825,34.4878628648877
246.57642804489328,-0.1880310964733324,34.494456105350956
