Depth,Temperature,Salinity
100.2141850520372,-1.4658190273117508,32.43883930692825
100.4641850520372,-1.4647231221276482,32.44036101916061
100.7141850520372,-1.4635559380094358,32.4433143789956
100.9641850520372,-1.462153290318683,32.44652364981504
101.2141850520372,-1.4606892850832116,32.4496171234562
101.4641850520372,-1.4595719097518431,32.452736191093784
101.7141850520372,-1.4586963201656877,32.454949111376536
101.9641850520372,-1.4578577092036316,32.45682175887605
102.2141850520372,-1.457012048858808,32.45916456881441
102.4641850520372,-1.4563615384024657,32.461736679044435
102.7141850520372,-1.4560658626178036,32.463424173241854
102.9641850520372,-1.455216311162002,32.46490626925419
103.2141850520372,-1.4539235270097164,32.46765703437683
103.4641850520372,-1.452871067757677,32.47089655884151
103.7141850520372,-1.4518998201723636,32.47165545961943
103.9641850520372,-1.450515946028332,32.47424713212584
104.2141850520372,-1.449278344576774,32.47719688943205
104.4641850520372,-1.4487224646087724,32.47808410089514
104.7141850520372,-1.448097107510115,32.480399978136475
104.9641850520372,-1.4466214750782247,32.483370636169866
105.2141850520372,-1.4449426149637903,32.48661989435902
105.4641850520372,-1.4437008026547018,32.49008647000015
105.7141850520372,-1.4423841973812892,32.49307042731858
105.9641850520372,-1.4413866216091222,32.496650586250496
106.2141850520372,-1.44058494037844,32.499812169355664
106.4641850520372,-1.4397070233553366,32.50237144647595
106.7141850520372,-1.4388410410627934,32.50587438054146
106.9641850520372,-1.4379174976153482,32.50783868237015
107.2141850520372,-1.4371475256084822,32.51087753458263
107.4641850520372,-1.4365775486291654,32.51527092306598
107.7141850520372,-1.4358573429689794,32.51752995965355
107.9641850520372,-1.434667219144484,32.51961415869911
108.2141850520372,-1.4333203475791425,32.52184731930965
108.4641850520372,-1.4318660694803567,32.5244653922518
108.7141850520372,-1.4302149838349405,32.52782498336555
108.9641850520372,-1.428864131506852,32.53096714495054
109.2141850520372,-1.428140307709719,32.53329902009402
109.4641850520372,-1.4276970924188428,32.53565481742005
109.7141850520372,-1.4272256209618488,32.53841285708548
109.9641850520372,-1.426925304580246,32.54059641032632
110.2141850520372,-1.4265374702999427,32.54309499211815
110.4641850520372,-1.4262018560048448,32.54585418924035
110.7141850520372,-1.4260899905474433,32.54873938156141
110.9641850520372,-1.4260432874185878,32.55161174691479
111.2141850520372,-1.425845341296119,32.55303289871002
111.4641850520372,-1.4258896622935207,32.55536585802552
111.7141850520372,-1.4257185013323705,32.55942547174518
111.9641850520372,-1.4248757456990389,32.56307082252288
112.2141850520372,-1.4245794547767856,32.56502651225474
112.4641850520372,-1.4238887887720844,32.567895707605494
112.7141850520372,-1.4229822948777677,32.57220112095319
112.9641850520372,-1.4224424996332856,32.57577980859939
113.2141850520372,-1.4213859400236215,32.577358529305876
113.4641850520372,-1.4200080911470647,32.580100904623905
113.7141850520372,-1.418739730202395,32.58394940688141
113.9641850520372,-1.4176752751295543,32.58807188747491
114.2141850520372,-1.4166634594704561,32.59292736290687
114.4641850520372,-1.415953861240941,32.59488336567153
114.7141850520372,-1.4151888028687383,32.59573529572847
114.9641850520372,-1.4134146468496207,32.59741312304398
115.2141850520372,-1.410387046491152,32.599341891271706
115.4641850520372,-1.407950202561492,32.602852520491794
115.7141850520372,-1.4058380666904031,32.60670713038985
115.9641850520372,-1.4033330958044044,32.60994413144588
116.2141850520372,-1.4007001776317107,32.61256597575748
116.4641850520372,-1.3988690638372872,32.61452006156544
116.7141850520372,-1.3970345283418193,32.61824121106796
116.9641850520372,-1.3952400702533958,32.62241407156375
117.2141850520372,-1.393973817912036,32.62500702812373
117.4641850520372,-1.3927554658871444,32.628117956331685
117.7141850520372,-1.3918814664706578,32.63059862282459
117.9641850520372,-1.3913566687882597,32.63253792133886
118.2141850520372,-1.3909640021092824,32.635142172837874
118.4641850520372,-1.3907347862328012,32.63847122348688
118.7141850520372,-1.3906132187682934,32.64163033220242
118.9641850520372,-1.3909085385739917,32.64494535737645
119.2141850520372,-1.3914096561059175,32.64867423573363
119.4641850520372,-1.3913030065440266,32.65188145408547
119.7141850520372,-1.391182962032159,32.65436901373277
119.9641850520372,-1.3910248579592808,32.657763702817434
120.2141850520372,-1.390558221727334,32.66161344616245
120.4641850520372,-1.3898907100583648,32.664118156247724
120.7141850520372,-1.389316855455549,32.6676888838842
120.9641850520372,-1.388370467793408,32.671461332006636
121.2141850520372,-1.3873481082877357,32.67440817304292
121.4641850520372,-1.3867080057247776,32.67679612635102
121.7141850520372,-1.3856218029639515,32.679168080588354
121.9641850520372,-1.3841240862053386,32.682598776075174
122.2141850520372,-1.3826191564922377,32.6859743841164
122.4641850520372,-1.3805951352966928,32.6891291418526
122.7141850520372,-1.3770828309780576,32.694011837322
122.9641850520372,-1.3736034714298857,32.699176343513166
123.2141850520372,-1.3716522490484544,32.704196609076355
123.4641850520372,-1.3707478096388022,32.70818816791277
123.7141850520372,-1.3695492384619505,32.710179247098864
123.9641850520372,-1.3682777928821215,32.7119418990171
124.2141850520372,-1.3672281885030624,32.717585704116516
124.4641850520372,-1.3665530533587027,32.72270472673741
124.7141850520372,-1.366677684792883,32.72440276666453
124.9641850520372,-1.3678894376655524,32.72818568852007
125.2141850520372,-1.3686234472407217,32.731572854582666
125.4641850520372,-1.3688010479386905,32.73372850228801
125.7141850520372,-1.369400336372344,32.73679324220884
125.9641850520372,-1.3706697220882158,32.74180794810005
126.2141850520372,-1.371155655280289,32.74497347568973
126.4641850520372,-1.3716164051577229,32.74897060138788
126.7141850520372,-1.37244209017128,32.75488304568455
126.9641850520372,-1.3730448654297,32.7601626537174
127.2141850520372,-1.3733517847139431,32.76348503832061
127.4641850520372,-1.3736945933284945,32.76646741404994
127.7141850520372,-1.3739875949606581,32.77027015476734
127.9641850520372,-1.374226551984167,32.77425478906265
128.21418505203718,-1.3750055386179971,32.7773055635071
128.46418505203718,-1.3756368439506448,32.78174990336238
128.71418505203718,-1.3760486532930556,32.786395385605005
128.96418505203718,-1.3765848659476596,32.78946763492396
129.21418505203718,-1.3771350228600472,32.793153199033384
129.46418505203718,-1.377888753536686,32.797199319471495
129.71418505203718,-1.378603233320167,32.80093792773349
129.96418505203718,-1.3791547629071053,32.80477895252764
130.21418505203718,-1.3799255678262634,32.8094974541405
130.46418505203718,-1.380537171108369,32.81273854959569
130.71418505203718,-1.3810663000845667,32.81482474070364
130.96418505203718,-1.3817740155496385,32.81771572051316
131.21418505203718,-1.3826067869814787,32.821842046647355
131.46418505203718,-1.3833864694137683,32.825082138762006
131.71418505203718,-1.3840809196972605,32.828216446803715
131.96418505203718,-1.3844814649158061,32.83063589454914
132.21418505203718,-1.3847884568549478,32.83192694182951
132.46418505203718,-1.386063450567957,32.83654074276622
132.71418505203718,-1.3868640637613814,32.84037507101723
132.96418505203718,-1.3875157347127478,32.843426329405084
133.21418505203718,-1.3887469362655775,32.847270975064625
133.46418505203718,-1.3896557183118903,32.85005890542292
133.71418505203718,-1.390836570434315,32.85460016281848
133.96418505203718,-1.3918821506671382,32.858931891628444
134.21418505203718,-1.3925005129857984,32.86165827858405
134.46418505203718,-1.3933663479669711,32.86509857614067
134.71418505203718,-1.3950336868488082,32.870434505886244
134.96418505203718,-1.3963633289574913,32.87535017703369
135.21418505203718,-1.3973640404849135,32.87896191344418
135.46418505203718,-1.3987742894096828,32.88255058018374
135.71418505203718,-1.4000795196659812,32.886843622023
135.96418505203718,-1.4014418584703636,32.891198577006605
136.21418505203718,-1.4027554084137241,32.89477674983461
136.46418505203718,-1.4043946142307286,32.89867869784042
136.71418505203718,-1.4069139946345908,32.90459942220124
136.96418505203718,-1.4088936065035615,32.909774299364514
137.21418505203718,-1.4108178168021244,32.914196184663076
137.46418505203718,-1.413327051726538,32.91972920505179
137.71418505203718,-1.4159998106789164,32.92630636194363
137.96418505203718,-1.4180733271302421,32.93051786128219
138.21418505203718,-1.42014381267605,32.935178228900234
138.46418505203718,-1.4223220310012654,32.94050048456866
138.71418505203718,-1.4244385733003333,32.945261027702365
138.96418505203718,-1.4268826907489114,32.951565785288544
139.21418505203718,-1.428965440279136,32.95818051189987
139.46418505203718,-1.430515440311241,32.96308209975215
139.71418505203718,-1.432023957034337,32.96685162642278
139.96418505203718,-1.4338267317249977,32.97239650560439
140.21418505203718,-1.4353331377854879,32.97679372011005
140.46418505203718,-1.4365823258373187,32.981307169106515
140.71418505203718,-1.4377224407726217,32.98704131006478
140.96418505203718,-1.4384688031760808,32.99148098375999
141.21418505203718,-1.4390330855751061,32.99651060174119
141.46418505203718,-1.439713780738576,33.00239838424128
141.71418505203718,-1.4403388080698667,33.00726172037597
141.96418505203718,-1.4408536100129425,33.0108307622236
142.21418505203718,-1.4419787515283509,33.01648505470493
142.46418505203718,-1.4426297404356785,33.02033139871976
142.71418505203718,-1.4430883483245036,33.02304617787006
142.96418505203718,-1.4441879363341912,33.02737891823733
143.21418505203718,-1.4456625645344576,33.03237281675854
143.46418505203718,-1.4474127348646169,33.037858014638545
143.71418505203718,-1.4485034975561866,33.040920702865186
143.96418505203718,-1.4494023902889994,33.043197352079204
144.21418505203718,-1.4515891057824548,33.04970129868089
144.46418505203718,-1.4529512302374958,33.05386362882589
144.71418505203718,-1.4538009049139735,33.05682759846967
144.96418505203718,-1.4548536870086113,33.06094050702367
145.21418505203718,-1.4556730693321838,33.064984620315784
145.46418505203718,-1.4560773536863205,33.06889211369787
145.71418505203718,-1.456241740443819,33.072747583155824
145.96418505203718,-1.4565510123723828,33.078615657230145
146.21418505203718,-1.4570682304327014,33.08603764828809
146.46418505203718,-1.457459009903327,33.08936498489306
146.71418505203718,-1.4585851500805973,33.09341894623168
146.96418505203718,-1.4594016794369884,33.096959438846895
147.21418505203718,-1.4599310248755217,33.100270348815826
147.46418505203718,-1.4616989341593085,33.10834836064248
147.71418505203718,-1.462587811098136,33.115868686396404
147.96418505203718,-1.4626847190132304,33.119362563112155
148.21418505203718,-1.4627200846332191,33.12295067854296
148.46418505203718,-1.4627887653911837,33.13046235093858
148.71418505203718,-1.4626616216562676,33.13567522377741
148.96418505203718,-1.4621288730531512,33.13952753465201
149.21418505203718,-1.4614799569829717,33.14362058279374
149.46418505203718,-1.460905830744217,33.148509139155244
149.71418505203718,-1.460014295251587,33.15492803243672
149.96418505203718,-1.459348532149654,33.16043112887727
150.21418505203718,-1.4589353863612367,33.16278041132399
150.46418505203718,-1.4584038667549142,33.16499555058157
150.71418505203718,-1.4577997490964774,33.17261167287763
150.96418505203718,-1.4577544573346386,33.17863958547548
151.21418505203718,-1.4575766231660656,33.18254373933484
151.46418505203718,-1.4569715489751247,33.18724574034499
151.71418505203718,-1.4563544155818815,33.19283053254672
151.96418505203718,-1.45520310081122,33.19662791175424
152.21418505203718,-1.4543402194462693,33.2001337367292
152.46418505203718,-1.4535347791286066,33.204239509311265
152.71418505203718,-1.4522969760379474,33.208622296535395
152.96418505203718,-1.451451176808581,33.21365923036297
153.21418505203718,-1.4499450043923368,33.2184410666903
153.46418505203718,-1.4481393020739917,33.224309677919216
153.71418505203718,-1.4468847963961151,33.231169455757275
153.96418505203718,-1.4458922901040416,33.236377367994436
154.21418505203718,-1.4448277002393917,33.24304948108372
154.46418505203718,-1.4437723715921782,33.24931627508805
154.71418505203718,-1.4429729987820825,33.25382667974059
154.96418505203718,-1.4425120665317783,33.258950991967325
155.21418505203718,-1.4422118532654888,33.26474599996636
155.46418505203718,-1.4420333476736498,33.26898973757818
155.71418505203718,-1.4416760717502068,33.27385314591711
155.96418505203718,-1.4408924200797633,33.281329296118344
156.21418505203718,-1.4401536324816326,33.28487097826825
156.46418505203718,-1.439457496280173,33.290278243847816
156.71418505203718,-1.4384415972472548,33.297692694845054
156.96418505203718,-1.437171315254737,33.30237279957976
157.21418505203718,-1.436359509615314,33.30583454628769
157.46418505203718,-1.4354703613695552,33.311722918720044
157.71418505203718,-1.4345470220554006,33.31699685771705
157.96418505203718,-1.4336978099391036,33.32015553570047
158.21418505203718,-1.432438313911932,33.326018248303704
158.46418505203718,-1.4307846600025476,33.333048617693116
158.71418505203718,-1.4292590900741753,33.339982188542315
158.96418505203718,-1.4280459801610523,33.346531081564684
159.21418505203718,-1.4269153640380283,33.35231711080058
159.46418505203718,-1.425884335229662,33.35703751067298
159.71418505203718,-1.42437033639051,33.36379969786569
159.96418505203718,-1.4226781010815213,33.371905020040735
160.21418505203718,-1.4213168617440082,33.37779959223276
160.46418505203718,-1.4198395020960555,33.38124219761515
160.71418505203718,-1.4186931539307837,33.38630919620339
160.96418505203718,-1.4165361291832175,33.39311972436649
161.21418505203718,-1.413306352650869,33.40050816275222
161.46418505203718,-1.410936502263732,33.40923848894433
161.71418505203718,-1.407767539375257,33.418593517185776
161.96418505203718,-1.404612935421716,33.42596175166589
162.21418505203718,-1.4020424138075462,33.43278664962022
162.46418505203718,-1.3994291585455545,33.44107264017036
162.71418505203718,-1.3972289077641786,33.44523928422846
162.96418505203718,-1.3948506165086556,33.45097989221466
163.21418505203718,-1.3926127011676317,33.458328640431205
163.46418505203718,-1.3904676764233328,33.46408093537379
163.71418505203718,-1.386725012727576,33.47233963078472
163.96418505203718,-1.3827988110450968,33.48364669602808
164.21418505203718,-1.3803650956491167,33.49152116323197
164.46418505203718,-1.3788375927187349,33.494478214659914
164.71418505203718,-1.3762110319096088,33.49955113992703
164.96418505203718,-1.37327768190049,33.50679689864259
165.21418505203718,-1.3705937601959248,33.51304426765739
165.46418505203718,-1.368293892448196,33.519086603891786
165.71418505203718,-1.3664379772926825,33.52539728379986
165.96418505203718,-1.364821242831186,33.52692386354504
166.21418505203718,-1.36212780690994,33.53295886196541
166.46418505203718,-1.3582792006501376,33.543206700639594
166.71418505203718,-1.354667606065422,33.551431296126765
166.96418505203718,-1.3522960618407787,33.55675125050113
167.21418505203718,-1.3496761560174244,33.56262532969204
167.46418505203718,-1.3469887601753538,33.56712495576309
167.71418505203718,-1.3445094323113027,33.57134811332126
167.96418505203718,-1.3423692440114792,33.57725830286477
168.21418505203718,-1.340826673558577,33.58121272020311
168.46418505203718,-1.336766133725027,33.58707251236115
168.71418505203718,-1.3316472259111578,33.59608422444471
168.96418505203718,-1.3273741869454052,33.605436672778424
169.21418505203718,-1.32200024774645,33.61262565179533
169.46418505203718,-1.3183534300936528,33.61917581952229
169.71418505203718,-1.3161814385265382,33.62339445442112
169.96418505203718,-1.3127024629228143,33.62792162957204
170.21418505203718,-1.3071842277836607,33.63774988411338
170.46418505203718,-1.3035235744903593,33.64441282621618
170.71418505203718,-1.2993667833276208,33.65111245050468
170.96418505203718,-1.2942806683083679,33.659478996408545
171.21418505203718,-1.2908489959276994,33.66542205573836
171.46418505203718,-1.28859650367338,33.6679706739733
171.71418505203718,-1.2826676211456371,33.67487372888495
171.96418505203718,-1.2760648003134698,33.684879084558226
172.21418505203718,-1.2705947181454673,33.69486648326346
172.46418505203718,-1.2632191142400675,33.70559795356539
172.71418505203718,-1.257389912542488,33.714408541472494
172.96418505203718,-1.252331687524889,33.72227521116845
173.21418505203718,-1.247443815431591,33.728505850477056
173.46418505203718,-1.2428768274483804,33.73415065544896
173.71418505203718,-1.2371246268156353,33.74535500808104
173.96418505203718,-1.2342065548774854,33.74810235339482
174.21418505203718,-1.2307877616553793,33.74988957991174
174.46418505203718,-1.2240098839604723,33.75975786210826
174.71418505203718,-1.2182777076835174,33.76761410037295
174.96418505203718,-1.2128624494854987,33.77601909699126
175.21418505203718,-1.2084331540661581,33.7830740093644
175.46418505203718,-1.203522498609107,33.79193373959856
175.71418505203718,-1.1972602518125408,33.803374478157416
175.96418505203718,-1.193687314749062,33.805767728261145
176.21418505203718,-1.1909402185378084,33.80857159274399
176.46418505203718,-1.1870849165641773,33.81406605333927
176.71418505203718,-1.182572334355958,33.81916849947691
176.96418505203718,-1.1786166706277246,33.82517670095639
177.21418505203718,-1.1737053420651953,33.83382486228487
177.46418505203718,-1.1700271700413412,33.83895709545553
177.71418505203718,-1.1669213873823168,33.841786590249974
177.96418505203718,-1.161204341166199,33.85000438699928
178.21418505203718,-1.1562578932245247,33.857594732573155
178.46418505203718,-1.1521152937226167,33.86300531435739
178.71418505203718,-1.1483541889536892,33.868655773049056
178.96418505203718,-1.144776715956642,33.87473977013684
179.21418505203718,-1.140316389622581,33.878877730373354
179.46418505203718,-1.1353419646332767,33.88834707235565
179.71418505203718,-1.131235432155494,33.89490400456758
179.96418505203718,-1.1276945107732486,33.89806573966037
180.21418505203718,-1.1235690139656047,33.90695825649063
180.46418505203718,-1.120507571115736,33.91046041803579
180.71418505203718,-1.117109172864423,33.91507797712583
180.96418505203718,-1.1134662910481299,33.922291031800164
181.21418505203718,-1.110703822902719,33.92695328658132
181.46418505203718,-1.1082271878072865,33.92944723621982
181.71418505203718,-1.1057895632002375,33.93169332666877
181.96418505203718,-1.1028623721703679,33.936247388252866
182.21418505203718,-1.1001516665637203,33.94145596868489
182.46418505203718,-1.0986117876486379,33.94356537910672
182.71418505203718,-1.0961037401064673,33.94590139954702
182.96418505203718,-1.09376651299361,33.94825595110778
183.21418505203718,-1.0922291086241227,33.95091380092439
183.46418505203718,-1.0905099333287347,33.95452002308119
183.71418505203718,-1.0880681103317915,33.95778002709089
183.96418505203718,-1.0857761219036066,33.96259223517778
184.21418505203718,-1.0836619882894807,33.9668396743882
184.46418505203718,-1.08094244084209,33.97012027159308
184.71418505203718,-1.0774825465804958,33.97565764447157
184.96418505203718,-1.074685544219584,33.98079369666225
185.21418505203718,-1.0711877042427482,33.98529878421386
185.46418505203718,-1.0662962694072078,33.99012015673496
185.71418505203718,-1.0613737038144575,33.994534944520105
185.96418505203718,-1.0581450602257945,33.99651996864145
186.21418505203718,-1.0564803297736816,33.9993481404933
186.46418505203718,-1.0531628439306164,34.00393292567827
186.71418505203718,-1.0477631188382937,34.00791326887598
186.96418505203718,-1.0440507386826337,34.009611899937305
187.21418505203718,-1.0416320492557027,34.012349232053054
187.46418505203718,-1.0387219377715142,34.017353846270034
187.71418505203718,-1.0348645574208162,34.022442301132216
187.96418505203718,-1.0303682009000248,34.02652747686941
