Depth,Temperature,Salinity
201.71450483843384,-1.544353621889724,33.085343138197025
201.96450483843384,-1.5440776056755259,33.087346845216636
202.21450483843384,-1.544265218062241,33.089865049503004
202.46450483843384,-1.5441583285876432,33.092054036296425
202.71450483843384,-1.5440168359444897,33.09407486883023
202.96450483843384,-1.5441539632672407,33.095997013845746
203.21450483843384,-1.5438880160996364,33.097967649510075
203.46450483843384,-1.5436346007732182,33.1040214242774
203.71450483843384,-1.5431999754022339,33.10982094565644
203.96450483843384,-1.5427519091644863,33.113858543292224
204.21450483843384,-1.5422881497603016,33.118204952130924
204.46450483843384,-1.5412695693614968,33.123782690889925
204.71450483843384,-1.5401481435148225,33.1320230816363
204.96450483843384,-1.539433926654844,33.13902597117707
205.21450483843384,-1.539158730677821,33.14319793305282
205.46450483843384,-1.539085561282739,33.145955220298184
205.71450483843384,-1.5389057794786332,33.14834461005987
205.96450483843384,-1.5383651705760908,33.15018073888066
206.21450483843384,-1.5376544056889017,33.152793899758485
206.46450483843384,-1.537333330449676,33.155826028627274
206.71450483843384,-1.536689060653575,33.15924458951174
206.96450483843384,-1.5357266921446238,33.16235731327689
207.21450483843384,-1.5349227550687956,33.16598494093987
207.46450483843384,-1.5332877827716351,33.17341681814007
207.71450483843384,-1.5321694698161124,33.1790766540392
207.96450483843384,-1.5315033507051392,33.18392749982938
208.21450483843384,-1.5309204159832976,33.18776434084491
208.46450483843384,-1.5304575236824847,33.189565947138135
208.71450483843384,-1.5299926491610951,33.19149492983399
208.96450483843384,-1.5292166193831302,33.19392687841824
209.21450483843384,-1.5283605334698107,33.197784426035575
209.46450483843384,-1.5270665479018406,33.20339624961412
209.71450483843384,-1.5250784796834496,33.211091735427594
209.96450483843384,-1.5231344504870974,33.21971513565377
210.21450483843384,-1.5222105801139472,33.225342701739145
210.46450483843384,-1.52136069343868,33.22900157218175
210.71450483843384,-1.5203951410972003,33.23271301113294
210.96450483843384,-1.5189085244708704,33.23748175061544
211.21450483843384,-1.5171499310870464,33.24270896010643
211.46450483843384,-1.5166485504690763,33.246713175495486
211.71450483843384,-1.5161948262596259,33.24887120853618
211.96450483843384,-1.515409475214823,33.250046852870135
212.21450483843384,-1.5140397774303658,33.25229473513856
212.46450483843384,-1.5121627706855003,33.256869136204436
212.71450483843384,-1.510366569861188,33.262610999987295
212.96450483843384,-1.508585060533,33.267362332565355
213.21450483843384,-1.5069545147045427,33.27221081818213
213.46450483843384,-1.5046846924926267,33.27807866959181
213.71450483843384,-1.5022949563804948,33.28400025101826
213.96450483843384,-1.5009127526664192,33.2885295848812
214.21450483843384,-1.4997115376465189,33.29186163897219
214.46450483843384,-1.4985172365354078,33.295210281513455
214.71450483843384,-1.4971947475677707,33.29860768233701
214.96450483843384,-1.494730452426685,33.30295660438901
215.21450483843384,-1.491414572267084,33.30853224309927
215.46450483843384,-1.489132355939499,33.314041948806626
215.71450483843384,-1.487341539403168,33.31955228093273
215.96450483843384,-1.4857820616808726,33.323104211620795
216.21450483843384,-1.4838256367513125,33.327231573531606
216.46450483843384,-1.4815443702081397,33.33236350644958
216.71450483843384,-1.4795136974882865,33.33564296354205
216.96450483843384,-1.4770421234258777,33.33942148505867
217.21450483843384,-1.4741670850736386,33.34429071698124
217.46450483843384,-1.4713866614179336,33.350118240494446
217.71450483843384,-1.4685915191995835,33.35620001147927
217.96450483843384,-1.4659863308949723,33.361193122353676
218.21450483843384,-1.46433990953217,33.364680756192314
218.46450483843384,-1.461867772074929,33.36913954074113
218.71450483843384,-1.4597825975409802,33.37342606301698
218.96450483843384,-1.4574047512790482,33.3776216757266
219.21450483843384,-1.454687892821204,33.38209229264245
219.46450483843384,-1.4533193470247703,33.38591879559767
219.71450483843384,-1.450826744489255,33.39008937784074
219.96450483843384,-1.4482867630751286,33.39366351832633
220.21450483843384,-1.4453212771824406,33.397947036432534
220.46450483843384,-1.4422750601131673,33.40369601335529
220.71450483843384,-1.4402426440233762,33.4091467713745
220.96450483843384,-1.4378439846592255,33.413016326518175
221.21450483843384,-1.435339391421301,33.41693894240431
221.46450483843384,-1.431243982770931,33.422720821564795
221.71450483843384,-1.4268484910442116,33.43019262742222
221.96450483843384,-1.4244253555422561,33.436973981096244
222.21450483843384,-1.4231048715759496,33.441311538961436
222.46450483843384,-1.4212609174926338,33.444984694053296
222.71450483843384,-1.4189787633250281,33.447971805522684
222.96450483843384,-1.4154609997314642,33.451110580742174
223.21450483843384,-1.4122095654800328,33.455639958386456
223.46450483843384,-1.4107574861130032,33.46047760315632
223.71450483843384,-1.409419454187048,33.462997324476646
223.96450483843384,-1.4083245725507232,33.46453766141391
224.21450483843384,-1.4064676703481658,33.46647598608854
224.46450483843384,-1.4040752969135322,33.469702142905575
224.71450483843384,-1.4022824301209005,33.4731922430685
224.96450483843384,-1.401103180932881,33.47568775773454
225.21450483843384,-1.39921673106168,33.47890331374753
225.46450483843384,-1.3968477298643516,33.48215122479007
225.71450483843384,-1.393373669697028,33.48685838864978
225.96450483843384,-1.389084978011728,33.49292201107919
226.21450483843384,-1.3849647391690274,33.49923143728952
226.46450483843384,-1.381128130450037,33.50630997488437
226.71450483843384,-1.377689162330385,33.51277673267944
226.96450483843384,-1.3722711380125694,33.5193467604101
227.21450483843384,-1.3642806768584979,33.529832626826256
227.46450483843384,-1.3574824054190575,33.54299799861652
227.71450483843384,-1.3544620441800859,33.55300726009781
227.96450483843384,-1.3510524029845172,33.559379968777996
228.21450483843384,-1.346138212363015,33.5651117673056
228.46450483843384,-1.3396809601000672,33.574146386376114
228.71450483843384,-1.335003382861351,33.58366781621685
228.96450483843384,-1.3329901268999063,33.590247085363465
229.21450483843384,-1.3295014348816556,33.59605666623112
229.46450483843384,-1.3241379877952872,33.60255255317043
229.71450483843384,-1.3181917105500562,33.61190836455925
229.96450483843384,-1.313337115213843,33.620817104421164
230.21450483843384,-1.3093103211366284,33.62937475149935
230.46450483843384,-1.303669360787362,33.63990106290971
230.71450483843384,-1.2948163441531675,33.64857276820451
230.96450483843384,-1.2850928327292794,33.65891224011154
231.21450483843384,-1.276536310290608,33.67565049503623
231.46450483843384,-1.2711278545938443,33.69060200940074
231.71450483843384,-1.2676421736177148,33.697523541739976
231.96450483843384,-1.262260407136149,33.704564447747146
232.21450483843384,-1.25669168918264,33.714702925035716
232.46450483843384,-1.2540798267081783,33.7213418318478
232.71450483843384,-1.252876166001158,33.72522683635919
232.96450483843384,-1.2514562396942477,33.728226970546956
233.21450483843384,-1.249497359437015,33.730198963216644
233.46450483843384,-1.2462859884838655,33.73328159859355
233.71450483843384,-1.2444303416123677,33.73693101685374
233.96450483843384,-1.2432709741951176,33.73942241260341
234.21450483843384,-1.2422863765800454,33.74220282447337
234.46450483843384,-1.2399849020462412,33.74691043010206
234.71450483843384,-1.234846543298574,33.75413714141439
234.96450483843384,-1.2296172615753553,33.76508088666153
235.21450483843384,-1.2258270877907296,33.77451662369841
235.46450483843384,-1.2218741897252539,33.783744735594865
235.71450483843384,-1.2179598592234173,33.79242207478635
235.96450483843384,-1.2150991456738793,33.79818940917805
236.21450483843384,-1.212282427139017,33.80288488980193
236.46450483843384,-1.2102358289603359,33.80770396323523
236.71450483843384,-1.2061025645619985,33.814597213688884
236.96450483843384,-1.2011916257659045,33.82309305244387
237.21450483843384,-1.196425817013102,33.83194241297593
237.46450483843384,-1.191298360187379,33.84024247528474
237.71450483843384,-1.1889334733977819,33.846551781788946
237.96450483843384,-1.1865148024826613,33.85212540198126
238.21450483843384,-1.1833532548293753,33.85693328065446
238.46450483843384,-1.17811039558086,33.86191530453735
238.71450483843384,-1.171421033763044,33.86832338456679
238.96450483843384,-1.1674057199464343,33.874900446454994
239.21450483843384,-1.1641240330826867,33.87923706601944
239.46450483843384,-1.1612189967299427,33.88303301808888
239.71450483843384,-1.1548703486479295,33.8863858310721
239.96450483843384,-1.1453262957317427,33.892437562254024
240.21450483843384,-1.1385772408072803,33.903774463843654
240.46450483843384,-1.134884375078911,33.91193361690563
240.71450483843384,-1.1313218799534617,33.91711248556583
240.96450483843384,-1.122101077879903,33.922413902267245
241.21450483843384,-1.1116769167150395,33.930523266738874
241.46450483843384,-1.1060074529881287,33.939420180075174
241.71450483843384,-1.102586731986657,33.94462844675103
241.96450483843384,-1.0998587280462717,33.94796897322597
242.21450483843384,-1.0960895974649485,33.95055307196457
242.46450483843384,-1.0936426728672988,33.95294928567984
242.71450483843384,-1.0919233479002364,33.95550764092423
242.96450483843384,-1.0894307153183693,33.95793574046073
243.21450483843384,-1.0877627844144786,33.959465206761955
243.46450483843384,-1.0842686325951425,33.960385920355485
243.71450483843384,-1.0810309110392888,33.96256121042421
243.96450483843384,-1.078130275203663,33.965785899852854
244.21450483843384,-1.0722007492443006,33.969013327629185
244.46450483843384,-1.063447769102942,33.97350148401769
244.71450483843384,-1.0577870698171954,33.98095931039604
244.96450483843384,-1.0544261256417684,33.987014278928704
245.21450483843384,-1.0498737719899291,33.99146972488553
245.46450483843384,-1.03946090285343,33.99691316055122
245.71450483843384,-1.0287776170980014,34.00442078225163
245.96450483843384,-1.026046253025052,34.01172475292913
246.21450483843384,-1.0236541220269044,34.01566036978642
246.46450483843384,-1.0198998517586266,34.017682503518884
246.71450483843384,-1.012596410287552,34.0205828642278
246.96450483843384,-1.0060146936903118,34.0243185697087
247.21450483843384,-1.0038845704142465,34.0276407826955
247.46450483843384,-1.0009709549276988,34.03115057030827
247.71450483843384,-0.9971529349261193,34.034778015791574
247.96450483843384,-0.9897079127638236,34.03785114845355
248.21450483843384,-0.9827496168915736,34.04282953814556
248.46450483843384,-0.9791627927676056,34.04943858220654
248.71450483843384,-0.9753324748420841,34.05366591047857
248.96450483843384,-0.9701534188870078,34.05603294906214
249.21450483843384,-0.9621298675915179,34.058528822034404
249.46450483843384,-0.955368349628079,34.06290947706263
249.71450483843384,-0.9508690577725212,34.06737869190373
249.96450483843384,-0.9443293480539067,34.071791528897855
250.21450483843384,-0.9350057275791414,34.078537648471475
250.46450483843384,-0.9306888978465628,34.084408436578414
250.71450483843384,-0.9282953946064989,34.08778497620376
250.96450483843384,-0.925496353083654,34.08949359971727
251.21450483843384,-0.9198945079571424,34.09149922553633
251.46450483843384,-0.9118623569862766,34.09441282789093
251.71450483843384,-0.9059315240213122,34.09702708773881
251.96450483843384,-0.8988565098804522,34.099930258182845
252.21450483843384,-0.8890895999190717,34.10488048465834
252.46450483843384,-0.8824321481905013,34.10955848064936
252.71450483843384,-0.8782461621917724,34.11278638423485
252.96450483843384,-0.8694653754250314,34.117176464043325
253.21450483843384,-0.8581480613461759,34.1236021932835
253.46450483843384,-0.8516797228019014,34.12834816529165
253.71450483843384,-0.8476489121921665,34.130756332318676
253.96450483843384,-0.8442594303072737,34.13181318699769
254.21450483843384,-0.8419844869190507,34.13296015872668
254.46450483843384,-0.8403147743089932,34.13471490076362
254.71450483843384,-0.839348662233898,34.13514308156972
254.96450483843384,-0.837841507741466,34.134703192469225
255.21450483843384,-0.830461197007412,34.133651675712464
255.46450483843384,-0.820687141356266,34.13628594467478
255.71450483843384,-0.8147736475335942,34.14429491244189
255.96450483843384,-0.8092843390338197,34.1503323321517
256.21450483843387,-0.8049776385847945,34.15283907850024
256.46450483843387,-0.7996293067777935,34.1533998186073
256.71450483843387,-0.7899264850100212,34.15773228013806
256.96450483843387,-0.781808686442395,34.1653995843956
257.21450483843387,-0.7811599572277228,34.17001204573474
257.46450483843387,-0.779676536985031,34.17154295023559
257.71450483843387,-0.7786604561584993,34.17221679256022
257.96450483843387,-0.7735727765379742,34.17155094304203
258.21450483843387,-0.7649091344365376,34.17686694455095
258.46450483843387,-0.7591761956351448,34.18598996132502
258.71450483843387,-0.7584112622094137,34.18787700724447
258.96450483843387,-0.7569025376362852,34.18899711420881
259.21450483843387,-0.7558986676899025,34.189663383350286
259.46450483843387,-0.7544259585337633,34.18992458619091
259.71450483843387,-0.7550204107832927,34.19127722353949
259.96450483843387,-0.7515235897990845,34.193469035278454
260.21450483843387,-0.7350361243348508,34.195720021155495
260.46450483843387,-0.7327871075461608,34.20203139500028
260.71450483843387,-0.7331793167820817,34.20519182750894
260.96450483843387,-0.7339117005577447,34.20686748452721
261.21450483843387,-0.7291310450602518,34.2078896983751
261.46450483843387,-0.7138720270210751,34.20831565665016
261.71450483843387,-0.7092445665677205,34.21608363752572
261.96450483843387,-0.7092182871369649,34.22055188332612
262.21450483843387,-0.7085845102028461,34.221409313053705
262.46450483843387,-0.7084174791047162,34.221278183644685
262.71450483843387,-0.7004572184383925,34.222237701942966
262.96450483843387,-0.6830281838294364,34.22693894895483
263.21450483843387,-0.6825086990832673,34.23392826186317
263.46450483843387,-0.6822859395857522,34.23581308149484
263.71450483843387,-0.6796194545740851,34.23558929322566
263.96450483843387,-0.6768666863434648,34.23511528311848
264.21450483843387,-0.671170086351838,34.23660497539854
264.46450483843387,-0.6635719002546583,34.24344555383628
264.71450483843387,-0.661660248165009,34.247962782110925
264.96450483843387,-0.6606286184887701,34.248929751873426
265.21450483843387,-0.6589025288483806,34.24919994470839
265.46450483843387,-0.6578053320939542,34.24995100519603
265.71450483843387,-0.6575622768056186,34.25072399360839
265.96450483843387,-0.6571346246715214,34.251078326236374
266.21450483843387,-0.6542432614805868,34.25034716528311
266.46450483843387,-0.645090551451246,34.25449980357599
266.71450483843387,-0.6397963117661092,34.26044718673571
266.96450483843387,-0.6402333761790068,34.263408232864016
267.21450483843387,-0.6389827447006196,34.26409121944037
267.46450483843387,-0.6381440697739857,34.26438869124725
267.71450483843387,-0.6373854144361403,34.26448065795491
267.96450483843387,-0.6367815417662327,34.26485026835932
268.21450483843387,-0.6368252654613609,34.26570133656765
268.46450483843387,-0.6340124628191829,34.26621990502192
268.71450483843387,-0.6263709726009222,34.268277892452225
268.96450483843387,-0.620672658996158,34.274897269261146
269.21450483843387,-0.6199617347182446,34.27789805118479
269.46450483843387,-0.6194673158136211,34.27919113492205
269.71450483843387,-0.618759354630706,34.280130473194056
269.96450483843387,-0.6171581629450071,34.27968120929838
270.21450483843387,-0.6123717587927182,34.27855076188469
270.46450483843387,-0.6055623557525078,34.279070622408184
270.71450483843387,-0.5969764029408585,34.2815980076304
270.96450483843387,-0.5899871937012928,34.28491611633916
271.21450483843387,-0.5849766321406508,34.2885275884254
271.46450483843387,-0.5817806852406316,34.291677848881804
271.71450483843387,-0.5805842964988688,34.293313450807574
271.96450483843387,-0.5795371994004894,34.29401254064198
272.21450483843387,-0.5790391052875703,34.29534792459673
272.46450483843387,-0.5730684443727597,34.29554300829994
272.71450483843387,-0.5619802855788196,34.29657781351009
272.96450483843387,-0.5542840455565617,34.30088181737461
273.21450483843387,-0.5536325083619942,34.30495866905186
273.46450483843387,-0.5521589410355843,34.30611116186318
273.71450483843387,-0.552735586669062,34.30797107762363
273.96450483843387,-0.5366462118275305,34.30732607691173
274.21450483843387,-0.5168153176700315,34.30863578466835
274.46450483843387,-0.5121590874763156,34.314823754247385
274.71450483843387,-0.5016400742666691,34.31831723011916
274.96450483843387,-0.490999466091422,34.32549536052152
275.21450483843387,-0.487572555338208,34.32885501531646
275.46450483843387,-0.48749124413116107,34.3300562403902
275.71450483843387,-0.4726593244744023,34.330859087370165
275.96450483843387,-0.4554576218131186,34.335109346682216
276.21450483843387,-0.4560093812928991,34.34303235675584
276.46450483843387,-0.4541152165235654,34.34459338134353
276.71450483843387,-0.4464395580103429,34.34283070432577
276.96450483843387,-0.4302796128444943,34.34823312048077
277.21450483843387,-0.42320278112662096,34.355807084350964
277.46450483843387,-0.4246873821618379,34.35936479864121
277.71450483843387,-0.4230859146096452,34.360180404261925
277.96450483843387,-0.42261353616176545,34.360195587882956
278.21450483843387,-0.42073296371000046,34.359911571249086
278.46450483843387,-0.41366347786171526,34.35694346148834
278.71450483843387,-0.3958970502267806,34.35828178266167
278.96450483843387,-0.3839271732146563,34.367079914659776
279.21450483843387,-0.3841273981858112,34.374837556625245
279.46450483843387,-0.3821643905811253,34.37515256579149
279.71450483843387,-0.3801758714119747,34.37593208765841
279.96450483843387,-0.37914798927880344,34.3768439573058
280.21450483843387,-0.3785862775209722,34.377153669288305
280.46450483843387,-0.3775636381408772,34.37690097183096
280.71450483843387,-0.377952261848989,34.37734622553914
280.96450483843387,-0.37472435080436156,34.379109427952535
281.21450483843387,-0.3596448397834832,34.38147477531525
281.46450483843387,-0.3573067299700096,34.387146533464
281.71450483843387,-0.35816156176016534,34.390505515110426
281.96450483843387,-0.35704493269708176,34.39099712852924
282.21450483843387,-0.3564580509785317,34.39109184044554
282.46450483843387,-0.35558525754961295,34.39108966550237
282.71450483843387,-0.3549615173276424,34.39122226968516
282.96450483843387,-0.3545729809386608,34.39138949097942
283.21450483843387,-0.35394693387269255,34.39159392523185
283.46450483843387,-0.35385429732144624,34.39234502306524
283.71450483843387,-0.3474182743483836,34.39307154609068
283.96450483843387,-0.33403293053185146,34.39497103963283
284.21450483843387,-0.33180690170451865,34.40131038580704
284.46450483843387,-0.33188368469078583,34.404603765048385
284.71450483843387,-0.3312771403583081,34.40517776328021
284.96450483843387,-0.33101510371660897,34.405644357426645
285.21450483843387,-0.3307192737334196,34.405975744467256
285.46450483843387,-0.32987676051974457,34.40554046369969
285.71450483843387,-0.3292612755245129,34.40545885086963
285.96450483843387,-0.3289357957426832,34.40546338158192
286.21450483843387,-0.3290461127551277,34.40595660880996
286.46450483843387,-0.3284783069130249,34.40582448476168
286.71450483843387,-0.32921200479075646,34.406432761057005
286.96450483843387,-0.32875445552546523,34.408385295929676
287.21450483843387,-0.3113396946820916,34.4040750423322
287.46450483843387,-0.3007182965873452,34.40996273849456
287.71450483843387,-0.2995921533822379,34.41785063462268
287.96450483843387,-0.2995686236832393,34.41960397239101
288.21450483843387,-0.29863041852631333,34.41963988796242
288.46450483843387,-0.2976153922406578,34.419656606904546
288.71450483843387,-0.2971109452236093,34.42019077796588
