Depth,Temperature,Salinity
146.61642175662425,-1.438255297393398,33.077670039144195
146.86642175662425,-1.4378704809534695,33.082530660070844
147.11642175662425,-1.4373596763826209,33.0861151542817
147.36642175662425,-1.4372237260437115,33.089365364158105
147.61642175662425,-1.4371030740803301,33.09303328073193
147.86642175662425,-1.436293507032963,33.097871373965226
148.11642175662425,-1.4355620069933128,33.10466339210755
148.36642175662425,-1.4350442457702357,33.11133743341672
148.61642175662425,-1.434818793314055,33.11562845543521
148.86642175662425,-1.4346133165269108,33.118169650176135
149.11642175662425,-1.4338652610213014,33.12204238603694
149.36642175662425,-1.4336185103089483,33.126966720491076
149.61642175662425,-1.4327203682430298,33.133214942327825
149.86642175662425,-1.4310635497596644,33.14036951167893
150.11642175662425,-1.4300063279994923,33.14647917872803
150.36642175662425,-1.4292869556586782,33.150092351673194
150.61642175662425,-1.4291945444891943,33.15365266645588
150.86642175662425,-1.428847361071568,33.1576123139937
151.11642175662425,-1.4275742838939858,33.16317217351791
151.36642175662425,-1.4260615189847354,33.172997417438076
151.61642175662425,-1.4244105664704372,33.18260162218153
151.86642175662425,-1.4232249195532076,33.18879535515856
152.11642175662425,-1.4223866000071956,33.19318245305718
152.36642175662425,-1.421249582259719,33.19783713559755
152.61642175662425,-1.4198994472752258,33.20089568018271
152.86642175662425,-1.4181862488184604,33.20720971468745
153.11642175662425,-1.4163199443816061,33.21762421446007
153.36642175662425,-1.4147704147810585,33.22756852492051
153.61642175662425,-1.4137279944795322,33.23338463215133
153.86642175662425,-1.4128219650373302,33.23889546794364
154.11642175662425,-1.4123790274749213,33.243676723780624
154.36642175662425,-1.411863890942687,33.24771677626237
154.61642175662425,-1.4108721202421899,33.252422207427635
154.86642175662425,-1.410396095720446,33.25775900363836
155.11642175662425,-1.4091111186254306,33.26422381069637
155.36642175662425,-1.4081251193760225,33.269549547429754
155.61642175662425,-1.408048789758366,33.27364473537928
155.86642175662425,-1.4077602898508765,33.27867416232958
156.11642175662425,-1.4077051113111807,33.28230281533292
156.36642175662425,-1.4061284671023822,33.28573046746767
156.61642175662425,-1.402922636238344,33.29072709475941
156.86642175662425,-1.3997279184565212,33.29669081979064
157.11642175662425,-1.3975656814406696,33.301438906253
157.36642175662425,-1.396031506632436,33.305751058689495
157.61642175662425,-1.3944479801300265,33.30933431685579
157.86642175662425,-1.392610365066422,33.31258055716641
158.11642175662425,-1.3909605442849111,33.317344781602245
158.36642175662425,-1.3900539947271593,33.32440921519625
158.61642175662425,-1.3892030120219971,33.3304646058489
158.86642175662425,-1.388010544170299,33.33582271174024
159.11642175662425,-1.386333632539029,33.340974202432
159.36642175662425,-1.3842654761162867,33.34388448987987
159.61642175662425,-1.3831671322345602,33.347699068149666
159.86642175662425,-1.3821568907709754,33.353367705128555
160.11642175662425,-1.3810739358169473,33.36078097096199
160.36642175662425,-1.3805082346450614,33.36838947543439
160.61642175662425,-1.3795027909111093,33.37289706904042
160.86642175662425,-1.3784176495104212,33.37798798572297
161.11642175662425,-1.3774632645112814,33.382326291509074
161.36642175662425,-1.3763194589159338,33.386174026168966
161.61642175662425,-1.3750195655210251,33.39426961256646
161.86642175662425,-1.3747443056165092,33.403486577941095
162.11642175662425,-1.374522563960486,33.41115075708943
162.36642175662425,-1.3754712192972625,33.41841475772043
162.61642175662425,-1.3785487981223505,33.425874734057345
162.86642175662425,-1.3808291122923158,33.4302611687809
163.11642175662425,-1.3818659233846016,33.43399137802328
163.36642175662425,-1.380939165731756,33.4409439590887
163.61642175662425,-1.3780347764819463,33.45053211644649
163.86642175662425,-1.3748715775322684,33.4581422412399
164.11642175662425,-1.3733346607104935,33.46255208955326
164.36642175662425,-1.3721959990301522,33.4676649330657
164.61642175662425,-1.3711581367563284,33.472977311792235
164.86642175662425,-1.370823836741061,33.47745465590927
165.11642175662425,-1.3706290735806925,33.484517354483074
165.36642175662425,-1.3696393796658608,33.491632795503115
165.61642175662425,-1.3682846548619287,33.496495315747765
165.86642175662425,-1.3664608814131765,33.50067787664188
166.11642175662425,-1.3640672851577986,33.50576580363947
166.36642175662425,-1.3627151948190546,33.508395620105176
166.61642175662425,-1.3598780847823777,33.51250301897902
166.86642175662425,-1.3561229572978624,33.519772085567645
167.11642175662425,-1.3535507624119218,33.52712294722304
167.36642175662425,-1.3519986909439121,33.531272505575025
167.61642175662425,-1.3506080020840208,33.534475354439365
167.86642175662425,-1.3487823971806903,33.53748778758813
168.11642175662425,-1.346230778096051,33.54123893169442
168.36642175662425,-1.3429127273133694,33.547506832995246
168.61642175662425,-1.339273298826957,33.556246291851856
168.86642175662425,-1.3367107164058882,33.56296236684487
169.11642175662425,-1.3352152195897815,33.56755416148128
169.36642175662425,-1.3334848368349765,33.57153192941599
169.61642175662425,-1.3308403574221677,33.57495461080654
169.86642175662425,-1.3285307112194689,33.57926365140719
170.11642175662425,-1.3248069346141218,33.58611335331184
170.36642175662425,-1.3206674790917619,33.594034994766375
170.61642175662425,-1.3183618232342111,33.60007588624687
170.86642175662425,-1.3170252206401354,33.60382394555076
171.11642175662425,-1.3154154329723775,33.60808590790781
171.36642175662425,-1.3140898858510415,33.61291078029728
171.61642175662425,-1.3119031316323377,33.61829536503745
171.86642175662425,-1.3076596599645312,33.62502304600729
172.11642175662425,-1.3049241574394455,33.63151999118065
172.36642175662425,-1.3031590446183172,33.63504782445586
172.61642175662425,-1.3002258979676373,33.638594198278994
172.86642175662425,-1.2964602251074846,33.64382375892479
173.11642175662425,-1.2937600282246795,33.64775599693376
173.36642175662425,-1.289301793242206,33.65378436341726
173.61642175662425,-1.2841467797170183,33.66151152819065
173.86642175662425,-1.2800891177782234,33.66821360295658
174.11642175662425,-1.277174292026342,33.673214321877964
174.36642175662425,-1.2746904261324927,33.678478723142085
174.61642175662425,-1.2731007932374026,33.68069734936809
174.86642175662425,-1.2718404050277212,33.682968855741294
175.11642175662425,-1.26868064437312,33.688478564517375
175.36642175662425,-1.2627285523188996,33.69553408635295
175.61642175662425,-1.2582116868203759,33.7037488734418
175.86642175662425,-1.254739929194879,33.70979737808618
176.11642175662425,-1.2517293932534088,33.71532656353277
176.36642175662425,-1.2492445243940524,33.72132753685855
176.61642175662425,-1.2464028248463797,33.72374420966667
176.86642175662425,-1.243037426257251,33.72882565836226
177.11642175662425,-1.2384786055973895,33.736485092730895
177.36642175662425,-1.233311905195114,33.74395053044012
177.61642175662425,-1.2292110281678814,33.75061760620708
177.86642175662425,-1.226396657935431,33.756921404601265
178.11642175662425,-1.2232985857339984,33.7622524413684
178.36642175662425,-1.22030368703849,33.765878189089094
178.61642175662425,-1.2183107611912611,33.768904638199956
178.86642175662425,-1.2157400099623308,33.77406169239673
179.11642175662425,-1.2091862403305471,33.7818711562869
179.36642175662425,-1.2018668226042428,33.79077755799581
179.61642175662425,-1.1968233866938993,33.79825773082211
179.86642175662425,-1.1932781529300545,33.80315376440299
180.11642175662425,-1.1892999776578517,33.80740368201236
180.36642175662425,-1.1853904018048804,33.81298610675651
180.61642175662425,-1.182811931934621,33.81766013850222
180.86642175662425,-1.1786293015040523,33.82288540853886
181.11642175662425,-1.1692566456565887,33.83305199519982
181.36642175662425,-1.161911022361095,33.841326344322574
181.61642175662425,-1.156646560509086,33.84816340804155
181.86642175662425,-1.1520501499573694,33.854431453327535
182.11642175662425,-1.1479383158294298,33.858665018891195
182.36642175662425,-1.1438821187783128,33.8611076451194
182.61642175662425,-1.1406319398171598,33.866014447414884
182.86642175662425,-1.1352653966540869,33.87289279130197
183.11642175662425,-1.1282728746992998,33.88026034395087
183.36642175662425,-1.1230797525799563,33.887334595900484
183.61642175662425,-1.1178873887018614,33.891781688398865
183.86642175662425,-1.1138079841285062,33.89670711631398
184.11642175662425,-1.1106907666656403,33.901015058988385
184.36642175662425,-1.1063140841951762,33.90531401089254
184.61642175662425,-1.0997054554094774,33.914087773944836
184.86642175662425,-1.0946434936971496,33.92191216395029
185.11642175662425,-1.0911081622878462,33.926677431954616
185.36642175662425,-1.0874872607824346,33.931534590063926
185.61642175662425,-1.0840192855392878,33.93721826856456
185.86642175662425,-1.0819064213262315,33.938625847678
186.11642175662425,-1.076330984936612,33.9422180378202
186.36642175662425,-1.0685753664880366,33.950807299138916
186.61642175662425,-1.0622808275340094,33.96031073019489
186.86642175662425,-1.058209271493905,33.9660596786178
187.11642175662425,-1.0553326892398103,33.969955070643756
187.36642175662425,-1.0527726526895913,33.97334517668824
187.61642175662425,-1.050154567602919,33.97601410583705
187.86642175662425,-1.0460870372625202,33.979609825973306
188.11642175662425,-1.0394217199776792,33.98662771556571
188.36642175662425,-1.0339431126807328,33.99281604242088
188.61642175662425,-1.029826051464646,33.99831428485923
188.86642175662425,-1.0259801166520965,34.00314560250979
189.11642175662425,-1.0223878187240125,34.006881313379395
189.36642175662425,-1.0191034229352636,34.01129487299988
189.61642175662425,-1.0136128654961185,34.01699884526192
189.86642175662425,-1.0088866725645975,34.02380175952096
190.11642175662425,-1.006633618327826,34.02942740505855
190.36642175662425,-1.0049117620703774,34.032574153087985
190.61642175662425,-1.0034154247323233,34.03647095248519
190.86642175662425,-1.0017520979712375,34.038536783653676
191.11642175662425,-0.998680144161028,34.04051517014282
191.36642175662425,-0.9942800217183996,34.04560377056581
191.61642175662425,-0.9905149382851093,34.05230680702513
191.86642175662425,-0.988037257456926,34.05628907479082
192.11642175662425,-0.9855571192183694,34.05954287649948
192.36642175662425,-0.9827119991081401,34.0623716930516
192.61642175662425,-0.9792737386419915,34.065256215020725
192.86642175662425,-0.9741270643853038,34.071413760281324
193.11642175662425,-0.9683012567760021,34.077536581598416
193.36642175662425,-0.9633885886665958,34.08293227907031
193.61642175662425,-0.9594810113609901,34.08701355723967
193.86642175662425,-0.9553103076648666,34.089810917988736
194.11642175662425,-0.9502490611159198,34.093906020363534
194.36642175662425,-0.9455410243836463,34.09730539906455
194.61642175662425,-0.9396667002550714,34.10169567272875
194.86642175662425,-0.9334645703888331,34.10794052272906
195.11642175662425,-0.930054074098259,34.113208074487446
195.36642175662425,-0.9278970095997453,34.11556945093663
195.61642175662425,-0.9251157164879142,34.11654761466937
195.86642175662425,-0.9217046429611921,34.118140828988224
196.11642175662425,-0.9177299856345086,34.121907148219435
196.36642175662425,-0.9130240365641021,34.1273367357352
196.61642175662425,-0.9093907881000681,34.13049192548521
196.86642175662425,-0.9067253658755111,34.133035956552845
197.11642175662425,-0.9045845307206604,34.13547362851431
197.36642175662425,-0.9025279041002836,34.13732105744261
197.61642175662425,-0.8994036768376993,34.13950038143301
197.86642175662425,-0.8938181112877537,34.142511031665435
198.11642175662425,-0.8885592929583134,34.14799067481054
198.36642175662425,-0.8851073081124289,34.1528231991876
198.61642175662425,-0.8820191680536849,34.15483721002831
198.86642175662425,-0.8781132935616783,34.15825926694857
199.11642175662425,-0.8753384949714181,34.16087356852941
199.36642175662425,-0.8721339750523952,34.16318077207496
199.61642175662425,-0.8657353982898004,34.16814157730442
199.86642175662425,-0.8573785152284348,34.17522311046214
200.11642175662425,-0.8525826992553802,34.17882870819248
200.36642175662425,-0.8490783574904696,34.18307622254222
200.61642175662425,-0.8459843754159967,34.18709344125922
200.86642175662425,-0.8430051339900544,34.188888416959905
201.11642175662425,-0.838607074239387,34.190827686604486
201.36642175662425,-0.8331517212157066,34.19508004670341
201.61642175662425,-0.8290123678722694,34.19981287761059
201.86642175662425,-0.8268014027740623,34.20308927507703
202.11642175662425,-0.8247561775510531,34.20464531174643
202.36642175662425,-0.8211835012153204,34.205832726859896
202.61642175662425,-0.8173394846095309,34.20875888646072
202.86642175662425,-0.8134938356972969,34.21125977333067
203.11642175662425,-0.8078550777484363,34.215870635651896
203.36642175662425,-0.8018747864860486,34.223263221934744
203.61642175662425,-0.8012880514796822,34.22517421071236
203.86642175662425,-0.800462295705233,34.22647123275402
204.11642175662425,-0.7986480119167884,34.22811165535002
204.36642175662425,-0.7963309996449063,34.23070689036467
204.61642175662425,-0.7929604475559932,34.23471397316281
204.86642175662425,-0.7906587583907424,34.23533838378334
205.11642175662425,-0.7861078406161478,34.23920187536463
205.36642175662425,-0.7803466002369324,34.24425981337656
205.61642175662425,-0.7765638473201808,34.24617229118884
205.86642175662425,-0.775053276995568,34.247358373704145
206.11642175662425,-0.7740647688448965,34.24880150597552
206.36642175662425,-0.769286461565447,34.25131523346686
206.61642175662425,-0.7628597840962352,34.255669134383204
206.86642175662425,-0.7596629167450777,34.26019392027589
207.11642175662425,-0.7588967507336549,34.26137623907172
207.36642175662425,-0.7581434134726388,34.261964479123186
207.61642175662425,-0.7572301463789055,34.26259225334088
207.86642175662425,-0.7533295313468238,34.26418203815135
208.11642175662425,-0.7458060351671549,34.268066171748515
208.36642175662425,-0.7425573095052486,34.27213229119309
208.61642175662425,-0.741227565858119,34.27287362424621
208.86642175662425,-0.7370599277151617,34.27542705112786
209.11642175662425,-0.7319094582441693,34.27930955542046
209.36642175662425,-0.7289563992799867,34.279685674107974
209.61642175662425,-0.722682613246071,34.28333177389329
209.86642175662425,-0.7181179578612625,34.2863227811006
210.11642175662425,-0.7158492693354671,34.286920859242485
210.36642175662425,-0.7130777856359268,34.28669203062537
210.61642175662425,-0.7079558128055471,34.287459733486514
210.86642175662425,-0.6986066495689827,34.2912186187795
211.11642175662425,-0.6903578778746504,34.29537807634373
211.36642175662425,-0.6843319105797585,34.29878251155554
211.61642175662425,-0.6795108197664157,34.30127280071922
211.86642175662425,-0.6770997477376511,34.301886243725086
212.11642175662425,-0.675438158726838,34.30156633493462
212.36642175662425,-0.6707584202912188,34.30342240813806
212.61642175662425,-0.6643273392476634,34.30689067263651
212.86642175662425,-0.6595430867431124,34.30987754831556
213.11642175662425,-0.6558475836452954,34.312770132048286
213.36642175662425,-0.6529228254138021,34.31322059428975
213.61642175662425,-0.6460823974448952,34.31540365067268
213.86642175662425,-0.6375632841344261,34.31996046555697
214.11642175662425,-0.6342370107763806,34.32232829706674
214.36642175662425,-0.6317939307952087,34.323786812527786
214.61642175662425,-0.6294221418305382,34.32462051974432
214.86642175662425,-0.6262551341764743,34.32437200231903
215.11642175662425,-0.6195493982688275,34.32579141254856
215.36642175662425,-0.6097743097471329,34.33183484952245
215.61642175662425,-0.6062536907082701,34.335667657010816
215.86642175662425,-0.6053863080941196,34.336693721507935
216.11642175662425,-0.6036836131728902,34.33682271730468
216.36642175662425,-0.6028878161906356,34.33694796711745
216.61642175662425,-0.602138820188084,34.33729916690775
216.86642175662425,-0.5910649974776934,34.33905555981278
217.11642175662425,-0.5812243090457353,34.34350353336333
217.36642175662425,-0.5788328030547419,34.34743784133216
217.61642175662425,-0.5777233084084679,34.3479144191792
217.86642175662425,-0.5765990823916451,34.34875326259395
218.11642175662425,-0.5755564537266705,34.3489606700093
218.36642175662425,-0.5737174818348889,34.347716081907755
218.61642175662425,-0.5664812117231962,34.34879171990284
218.86642175662425,-0.553791288923618,34.355076750168735
219.11642175662425,-0.5498168514017213,34.359291420726436
219.36642175662425,-0.5487683695042258,34.3607107546301
219.61642175662425,-0.5470091249127206,34.3611465596144
219.86642175662425,-0.5466895887436223,34.36193438079929
220.11642175662425,-0.5465849217300793,34.36272871122221
220.36642175662425,-0.5405081806676441,34.36136963031192
220.61642175662425,-0.5321455028199694,34.365078125888076
220.86642175662425,-0.5273260213186466,34.37074349703442
221.11642175662425,-0.5265303689619548,34.37121495894881
221.36642175662425,-0.5255379086829852,34.37202318658724
221.61642175662425,-0.5239986283830491,34.371934290751646
221.86642175662425,-0.5238442560904462,34.37176621778295
222.11642175662425,-0.5199984635056406,34.37252101337392
222.36642175662425,-0.5084561462673166,34.37462792948579
222.61642175662425,-0.5026208242390006,34.38011194136876
222.86642175662425,-0.5008387639400864,34.38256612110055
223.11642175662425,-0.49875366108043845,34.382567746371706
223.36642175662425,-0.4957883097509223,34.383096766798744
223.61642175662425,-0.4920219566563367,34.383420000672714
223.86642175662425,-0.48418085625080926,34.386345957158966
224.11642175662425,-0.47742882799311226,34.39057464518513
224.36642175662425,-0.47440197390447314,34.39356837719482
224.61642175662425,-0.4733185938535379,34.3947051048009
224.86642175662425,-0.47240367984111997,34.3951087658556
225.11642175662425,-0.46922993903028876,34.394559166212105
225.36642175662425,-0.4651192423034485,34.39410888989402
225.61642175662425,-0.45789235741289874,34.39571527816933
225.86642175662425,-0.4473768423886264,34.40011470619641
226.11642175662425,-0.4432105108333639,34.40500394227913
226.36642175662425,-0.4416314256954491,34.40674630123805
226.61642175662425,-0.4401391821564063,34.406526717224466
226.86642175662425,-0.4387459003942188,34.4064415921518
227.11642175662425,-0.4368696039247096,34.406178623086134
227.36642175662425,-0.43348978006983235,34.40616967949102
227.61642175662425,-0.42453917447269734,34.40935669230473
227.86642175662425,-0.41579162075268,34.413983437192556
228.11642175662425,-0.41315542571603575,34.41665229282155
228.36642175662425,-0.4116402081645846,34.41783565346739
228.61642175662425,-0.4104776426766704,34.41808048132418
228.86642175662425,-0.4096274128506197,34.41816781604073
229.11642175662425,-0.40921586578612773,34.418584324190604
229.36642175662425,-0.4087853381346756,34.418855374962334
229.61642175662425,-0.40497357706487913,34.41863018506992
229.86642175662425,-0.3915654929280013,34.42131109437815
230.11642175662425,-0.38144458302848444,34.425863582969576
230.36642175662425,-0.3798283644208673,34.42928039249328
230.61642175662425,-0.3780067011702969,34.43055416543513
230.86642175662425,-0.3768623333996653,34.430845920265526
231.11642175662425,-0.3750034940631941,34.43058260249275
231.36642175662425,-0.37038748402357574,34.429881043364084
231.61642175662425,-0.36055484978795516,34.43095431415205
231.86642175662425,-0.3471840777576407,34.4358251472065
232.11642175662425,-0.34134292799239113,34.44014637696884
232.36642175662425,-0.33835216973205373,34.44224717810923
232.61642175662425,-0.3353420874289983,34.44319621800888
232.86642175662425,-0.3335567775551763,34.443828443845184
233.11642175662425,-0.33216157103625976,34.443717674168234
233.36642175662425,-0.3313168187162958,34.44391536674858
233.61642175662425,-0.32625702037496956,34.443055597813974
