Depth,Temperature,Salinity
189.0279475961729,-1.5425782540146717,33.03730525677758
189.2779475961729,-1.5422023648744783,33.03997190235292
189.5279475961729,-1.542342823301124,33.04270620700838
189.7779475961729,-1.541847261407086,33.045145549349165
190.0279475961729,-1.5409649328686368,33.04733026218675
190.2779475961729,-1.540207778481333,33.049338764855584
190.5279475961729,-1.5385588431474584,33.05090625753104
190.7779475961729,-1.5375466295297586,33.0530588406858
191.0279475961729,-1.5368995123542675,33.05507900418848
191.2779475961729,-1.5361803859817298,33.056872535101874
191.5279475961729,-1.5358980679134628,33.05925489275602
191.7779475961729,-1.5355347227428997,33.06084369436364
192.0279475961729,-1.535181191673625,33.062512706263696
192.2779475961729,-1.5349091101068144,33.06479213149301
192.5279475961729,-1.534701712634908,33.06706341413975
192.7779475961729,-1.5345201418014367,33.068799415649096
193.0279475961729,-1.533848347906357,33.07086151314016
193.2779475961729,-1.5333746325238626,33.07340505967041
193.5279475961729,-1.532685343364264,33.076937918289886
193.7779475961729,-1.531049495950431,33.08136642439301
194.0279475961729,-1.5297629170118994,33.084926125512
194.2779475961729,-1.5286777368878548,33.0890055261913
194.5279475961729,-1.5278784125388265,33.09323593393562
194.7779475961729,-1.5271284271127539,33.09673553729058
195.0279475961729,-1.5261349908613133,33.09970694265744
195.2779475961729,-1.5253385726478128,33.10244818157053
195.5279475961729,-1.5241481282748996,33.104245674260014
195.7779475961729,-1.5231287509720783,33.10751193150406
196.0279475961729,-1.5224219859122754,33.11205744419301
196.2779475961729,-1.5216026304521504,33.115186771308096
196.5279475961729,-1.5209998956929935,33.11728099197509
196.7779475961729,-1.5203902286307889,33.119982501664445
197.0279475961729,-1.5191954201420896,33.1236096711593
197.2779475961729,-1.5180914455242713,33.12714028573971
197.5279475961729,-1.51787988347135,33.129525689975345
197.7779475961729,-1.5168542004684107,33.13108708500004
198.0279475961729,-1.5158257125463463,33.13325841536836
198.2779475961729,-1.5150432139518188,33.1358788530499
198.5279475961729,-1.5142249680821118,33.13871760043989
198.7779475961729,-1.5135509431923564,33.14202887249359
199.0279475961729,-1.5127971251035488,33.144064321893076
199.2779475961729,-1.511640594076976,33.14729206591951
199.5279475961729,-1.5108495236324904,33.15042877886113
199.7779475961729,-1.5105946485502355,33.1519018035679
200.0279475961729,-1.5098085548690043,33.15394503870998
200.2779475961729,-1.5092005309990382,33.15560118143307
200.5279475961729,-1.508229957911244,33.158287779260995
200.7779475961729,-1.5070075847700364,33.161990261798984
201.0279475961729,-1.506040726743481,33.16615387838928
201.2779475961729,-1.5050371807642344,33.1711319478533
201.5279475961729,-1.504359129454049,33.1732306322663
201.7779475961729,-1.503610243909848,33.17730152035374
202.0279475961729,-1.5030708470180463,33.18283318775491
202.2779475961729,-1.5026742051042843,33.18635072242275
202.5279475961729,-1.5010284480763276,33.192143090828544
202.7779475961729,-1.5000584030023527,33.197233894732335
203.0279475961729,-1.4994841668791234,33.20086219791387
203.2779475961729,-1.4988449751206827,33.20367183344936
203.5279475961729,-1.4983137631057122,33.20580073547578
203.7779475961729,-1.4970078329111702,33.207979392717576
204.0279475961729,-1.4954499781898585,33.211511636412126
204.2779475961729,-1.4944612629242757,33.21613455857557
204.5279475961729,-1.4935615612583637,33.22028531997656
204.7779475961729,-1.4915919541066311,33.22391588902359
205.0279475961729,-1.4891938831751232,33.229316579100185
205.2779475961729,-1.488575710399704,33.23273192471804
205.5279475961729,-1.487326494161312,33.23589485566373
205.7779475961729,-1.4847352354494694,33.24087586316953
206.0279475961729,-1.4831955001138315,33.24584869250763
206.2779475961729,-1.481230781508453,33.25016590722675
206.5279475961729,-1.4792056339776425,33.25450303062049
206.7779475961729,-1.4777920465692145,33.25991408411717
207.0279475961729,-1.4762769116852814,33.265774433562136
207.2779475961729,-1.4740160243195342,33.27024357795561
207.5279475961729,-1.4729935794333264,33.273650266059796
207.7779475961729,-1.4721053247994762,33.27767841169122
208.0279475961729,-1.4707070893444276,33.28154976769608
208.2779475961729,-1.4689645291272642,33.2869336632165
208.5279475961729,-1.4671557210531523,33.29591700416184
208.7779475961729,-1.4662767630411444,33.300277537773546
209.0279475961729,-1.4655703360508245,33.30352206611988
209.2779475961729,-1.4645678882491975,33.30791002610793
209.5279475961729,-1.4634186146922203,33.31210815290063
209.7779475961729,-1.462205369490988,33.31660951008542
210.0279475961729,-1.4610396164575352,33.32341399287592
210.2779475961729,-1.4601963569429133,33.32728763986592
210.5279475961729,-1.459427482904701,33.330596873063975
210.7779475961729,-1.4584853010575056,33.337384325389564
211.0279475961729,-1.4576398678246982,33.3425241584344
211.2779475961729,-1.456469656791496,33.34651910163069
211.5279475961729,-1.4551306168693754,33.35167211567178
211.7779475961729,-1.4542178533083083,33.35643716342785
212.0279475961729,-1.45329905997949,33.35985075167087
212.2779475961729,-1.4509468767133855,33.3661241614092
212.5279475961729,-1.4494320311729474,33.36920487688874
212.7779475961729,-1.447641971838858,33.375047648150876
213.0279475961729,-1.445761666555576,33.381678967102935
213.2779475961729,-1.444761980851457,33.38320619229163
213.5279475961729,-1.4413568349980148,33.39105042876159
213.7779475961729,-1.43653251673738,33.39853492026257
214.0279475961729,-1.4340524933514402,33.40406944816016
214.2779475961729,-1.432616176246124,33.41040415718236
214.5279475961729,-1.4292731680146238,33.41682952222456
214.7779475961729,-1.4274531414368088,33.41973877794701
215.0279475961729,-1.425197832845318,33.42240872617244
215.2779475961729,-1.4205520075551465,33.4275099154122
215.5279475961729,-1.4159047583013589,33.43532638148413
215.7779475961729,-1.4138647656313084,33.443735857679584
216.0279475961729,-1.411140286903265,33.44951223663411
216.2779475961729,-1.4075831654258804,33.455126321200495
216.5279475961729,-1.4047275909271708,33.4594493288394
216.7779475961729,-1.4021479397591878,33.464178679148624
217.0279475961729,-1.3988322592947147,33.47156526492209
217.2779475961729,-1.3968440253451275,33.475158543186865
217.5279475961729,-1.394517596684962,33.48088425632231
217.7779475961729,-1.3924795574175002,33.486028952056884
218.0279475961729,-1.3915457507544104,33.488008180399035
218.2779475961729,-1.390299675169812,33.49065080130276
218.5279475961729,-1.387762088601037,33.492887756413516
218.7779475961729,-1.3851677340958843,33.496379143015155
219.0279475961729,-1.382358731821947,33.50169591003558
219.2779475961729,-1.3797608990721393,33.50728055647442
219.5279475961729,-1.3785485507252346,33.51157753544605
219.7779475961729,-1.3764234573538758,33.51550483763078
220.0279475961729,-1.372297512862291,33.52097007474807
220.2779475961729,-1.3686334699285205,33.52644546573494
220.5279475961729,-1.3668861824338976,33.530505876169144
220.7779475961729,-1.364732761754449,33.5348693023466
221.0279475961729,-1.3610120597134099,33.54016262802916
221.2779475961729,-1.3583096830330577,33.544576332647004
221.5279475961729,-1.3561511562101882,33.54901688391557
221.7779475961729,-1.3536737865012192,33.55404535347922
222.0279475961729,-1.3521938181614779,33.55751287319395
222.2779475961729,-1.3491330212744699,33.56101029055368
222.5279475961729,-1.3470231406897712,33.56532094642473
222.7779475961729,-1.3432413347366006,33.568950149887215
223.0279475961729,-1.3363056201493255,33.57233155639596
223.2779475961729,-1.332261081632113,33.57886009015206
223.5279475961729,-1.3282326781955518,33.586695497583506
223.7779475961729,-1.3228015084218092,33.59714566155019
224.0279475961729,-1.3199173673351443,33.604070649696155
224.2779475961729,-1.3178728180648382,33.606349148613326
224.5279475961729,-1.3088739205674516,33.615232963436355
224.7779475961729,-1.3023999785618794,33.62584414003423
225.0279475961729,-1.2988176816005368,33.63470481525528
225.2779475961729,-1.2931033673915127,33.6476395398919
225.5279475961729,-1.286375281775122,33.66233545155971
225.7779475961729,-1.284598183536803,33.66755099056952
226.0279475961729,-1.2825855879254677,33.67448488950893
226.2779475961729,-1.2761307146268257,33.6821460634863
226.5279475961729,-1.2698751214905502,33.68938216516358
226.7779475961729,-1.267171871804467,33.69804949570923
227.0279475961729,-1.2636355020722647,33.70740561616324
227.2779475961729,-1.2593934182103705,33.714857948774956
227.5279475961729,-1.2552401730551135,33.72044591419479
227.7779475961729,-1.252077333990419,33.72593531113786
228.0279475961729,-1.2497277312308164,33.73149698154555
228.2779475961729,-1.2468152803648278,33.73555918949115
228.5279475961729,-1.242933367019686,33.73944938948072
228.7779475961729,-1.2384649373463703,33.74740716285347
229.0279475961729,-1.2342425435841322,33.75538837677791
229.2779475961729,-1.2299775756554392,33.761090865080824
229.5279475961729,-1.2253709878359116,33.76873600233979
229.7779475961729,-1.222764157961824,33.77737964655462
230.0279475961729,-1.2210601169464599,33.78282548847199
230.2779475961729,-1.217870703747528,33.786437026549294
230.5279475961729,-1.2125566971768293,33.791722362532816
230.7779475961729,-1.2071207341629238,33.79900898649117
231.0279475961729,-1.2037302791661737,33.80661785402433
231.2779475961729,-1.2002129357819118,33.812639665716596
231.5279475961729,-1.1960668927940241,33.81864092799151
231.7779475961729,-1.1921164011142882,33.825946041346604
232.0279475961729,-1.188535104185758,33.832662743747626
232.2779475961729,-1.1853939359508805,33.83773908805562
232.5279475961729,-1.1806954588608103,33.84561865840722
232.7779475961729,-1.1750540328677546,33.854117593453196
233.0279475961729,-1.1706327085506236,33.86000363517525
233.2779475961729,-1.166258042306069,33.86588684378106
233.5279475961729,-1.1579874176062395,33.875267883323716
233.7779475961729,-1.1526681539865367,33.88339780564149
234.0279475961729,-1.14950801621161,33.890573920571704
234.2779475961729,-1.145006387178912,33.89898983064267
234.5279475961729,-1.1398665410992097,33.90616646280069
234.7779475961729,-1.135396741396591,33.90935200024941
235.0279475961729,-1.1269731469301922,33.91973044434661
235.2779475961729,-1.121757632676654,33.925217116770185
235.5279475961729,-1.1173306849322062,33.92857240421549
235.7779475961729,-1.1085406677921,33.93810478184175
236.0279475961729,-1.1029878308373844,33.9418589214535
236.2779475961729,-1.0972833297408797,33.94815122397555
236.5279475961729,-1.0933035497083874,33.95408354059096
236.7779475961729,-1.089920594513288,33.95748884255268
237.0279475961729,-1.0848049586416126,33.961216831041774
237.2779475961729,-1.0794769075320638,33.9659774167307
237.5279475961729,-1.0728702057531734,33.96954182503114
237.7779475961729,-1.0690701570633279,33.974379352789626
238.0279475961729,-1.0669433147794045,33.97850395120098
238.2779475961729,-1.0633069835936066,33.980228756133236
238.5279475961729,-1.059028885412973,33.98286408094767
238.7779475961729,-1.054039839099831,33.98576032429573
239.0279475961729,-1.0473440152241615,33.98950248676104
239.2779475961729,-1.0427743725227228,33.992975362437605
239.5279475961729,-1.0406095013860337,33.995824715265506
239.7779475961729,-1.0359468721225447,33.999492519636206
240.0279475961729,-1.0330658175170668,34.00240475813835
240.2779475961729,-1.029614790259187,34.00600362832757
240.5279475961729,-1.0220208012330636,34.010174364955894
240.7779475961729,-1.0141974599901082,34.01506690991483
241.0279475961729,-1.0113651019469774,34.02168235108535
241.2779475961729,-1.0035185713823773,34.026458527901895
241.5279475961729,-0.9976606202907122,34.03099007345248
241.7779475961729,-0.9926911483914961,34.037321146717744
242.0279475961729,-0.9876517731463365,34.04366092864051
242.2779475961729,-0.9861307043602818,34.04695352136468
242.5279475961729,-0.9753859479180189,34.04950869496122
242.7779475961729,-0.9686046630570725,34.05328913740483
243.0279475961729,-0.9647823809036343,34.05800865423809
243.2779475961729,-0.9580518170606716,34.06353905542117
243.5279475961729,-0.9539987004675613,34.06952682361029
243.7779475961729,-0.9502860096994635,34.07246800559476
244.0279475961729,-0.9384893791567501,34.07489834807715
244.2779475961729,-0.9299154843290844,34.080055021873164
244.5279475961729,-0.9247071696309908,34.08655293465958
244.7779475961729,-0.9138994726614709,34.09109028122523
245.0279475961729,-0.9097453217401703,34.09454374463329
245.2779475961729,-0.9026958734214443,34.098714470386675
245.5279475961729,-0.8940182923003587,34.10525650675547
245.7779475961729,-0.890969407360532,34.11147740681402
246.0279475961729,-0.8882960038513076,34.113365541459814
246.2779475961729,-0.8730966999881659,34.11276822913835
246.5279475961729,-0.8634789408962523,34.11683112567875
246.7779475961729,-0.8564721448220923,34.12299719430763
247.0279475961729,-0.8461010356480042,34.12955642636757
247.2779475961729,-0.837426176080953,34.13649436527078
247.5279475961729,-0.8351256589691378,34.13964729692017
247.7779475961729,-0.8312173079447681,34.14111880687401
248.0279475961729,-0.8255020479660843,34.1457126117576
248.2779475961729,-0.8210475684380422,34.149280052665695
248.5279475961729,-0.8184587764899057,34.147849063436226
248.7779475961729,-0.8159601198701391,34.148595679581604
249.0279475961729,-0.8109010402151752,34.15118207781505
249.2779475961729,-0.8069490184038026,34.153845541976985
249.5279475961729,-0.8039372397554694,34.15668769004377
249.7779475961729,-0.7986083749807359,34.15927324332542
250.0279475961729,-0.792187194135526,34.160496195948106
250.2779475961729,-0.7883983425907458,34.16472523813606
250.5279475961729,-0.7873011943207174,34.16877836665862
250.7779475961729,-0.7840932472040437,34.17029407740305
251.0279475961729,-0.7787661036408802,34.172516661010306
251.2779475961729,-0.778047734467485,34.17805112503667
251.5279475961729,-0.7773902767712035,34.18024046552532
251.7779475961729,-0.7684505586779871,34.18097556490914
252.0279475961729,-0.7598949254098556,34.184557212775054
252.2779475961729,-0.7578094507541913,34.18929110434755
252.5279475961729,-0.7527216545674179,34.19123240915932
252.7779475961729,-0.7470806933818057,34.19536298654057
253.0279475961729,-0.7433479360560937,34.19743459734045
253.2779475961729,-0.7394018032424605,34.19938749173183
253.5279475961729,-0.7344801163013746,34.20348277047691
253.7779475961729,-0.731120000997302,34.20663319733865
254.0279475961729,-0.7280823793151351,34.209691842133445
254.2779475961729,-0.7218144013621546,34.211069204510984
254.5279475961729,-0.7158560363864496,34.21148295428417
254.7779475961729,-0.7122042490695625,34.21388589122558
255.0279475961729,-0.7089270721652828,34.219448332547216
255.2779475961729,-0.7073187770889827,34.22470991885833
255.5279475961729,-0.6990333579925484,34.225921237309905
255.7779475961729,-0.6911771333304935,34.22716305225355
256.0279475961729,-0.6900883841552273,34.230761123736606
256.2779475961729,-0.6890026795766825,34.23355700033991
256.5279475961729,-0.6812557333839512,34.234942537500004
256.7779475961729,-0.6729330237527942,34.23731977311359
257.0279475961729,-0.6667621629227105,34.24262994706525
257.2779475961729,-0.6632741938629532,34.24693574869072
257.5279475961729,-0.6607521659470544,34.24643879153748
257.7779475961729,-0.6532335701342986,34.24706648100468
258.0279475961729,-0.6461776966993181,34.25095560432273
258.2779475961729,-0.6431775038619035,34.255752386940486
258.5279475961729,-0.6373836581761148,34.25799477917641
258.7779475961729,-0.626240297098134,34.2588878313011
259.0279475961729,-0.6226927942229519,34.263485431328796
259.2779475961729,-0.6221680062210835,34.266226262035005
259.5279475961729,-0.613596338111406,34.26635273429234
259.7779475961729,-0.6024793613698476,34.26814006095791
260.0279475961729,-0.5991649399815672,34.272482033381024
260.2779475961729,-0.5981695704894823,34.27463752280998
260.5279475961729,-0.5938501299587943,34.275827919900884
260.7779475961729,-0.587445435357814,34.27821603103167
261.0279475961729,-0.5837988462383021,34.28220708613008
261.2779475961729,-0.5827739879704937,34.28509405070078
261.5279475961729,-0.5787984703820329,34.284297141043936
261.7779475961729,-0.5741259819654418,34.28454727604629
262.0279475961729,-0.5707219900062372,34.28694016393123
262.2779475961729,-0.5698842612962162,34.28948246883097
262.5279475961729,-0.5684496401795839,34.28963442546603
262.7779475961729,-0.5626656221693856,34.28808646821196
263.0279475961729,-0.5600445588655975,34.29066343126709
263.2779475961729,-0.5554422083481503,34.293226689858265
263.5279475961729,-0.5506476449985269,34.29504781226449
263.7779475961729,-0.549327428531738,34.29764869299336
264.0279475961729,-0.5483589240025964,34.299926389118234
264.2779475961729,-0.5462140972032101,34.30160098107365
264.5279475961729,-0.5429346963551672,34.302354768820095
264.7779475961729,-0.5389979476284004,34.302756035125064
265.0279475961729,-0.5341853897125403,34.30504586991909
265.2779475961729,-0.5294992412056219,34.30956701720268
265.5279475961729,-0.5279196173343604,34.31153104280771
265.7779475961729,-0.5239016472521438,34.31168135497778
266.0279475961729,-0.515203762459358,34.31314920539854
266.2779475961729,-0.5083176189541321,34.315845664146956
266.5279475961729,-0.5077155473378941,34.31834165864191
266.7779475961729,-0.5061425149133667,34.321086345063435
267.0279475961729,-0.5015742278550468,34.320036746352855
267.2779475961729,-0.49707209484393855,34.321192358379456
267.5279475961729,-0.49474909652522975,34.32449380657723
267.7779475961729,-0.49130279426533985,34.32569643119389
268.0279475961729,-0.48296122520672774,34.3274167645134
268.2779475961729,-0.47813382613866046,34.33028085383084
268.5279475961729,-0.4768156738341881,34.33325861181692
268.7779475961729,-0.47328373889848,34.33460558768445
269.0279475961729,-0.46725508249462633,34.33509753530998
269.2779475961729,-0.464558888270077,34.33755316380642
269.5279475961729,-0.46219973864998914,34.33996689243233
269.7779475961729,-0.45567342333886357,34.341268906355836
270.0279475961729,-0.44868051282088944,34.34285595105876
270.2779475961729,-0.44541714625564643,34.34642038754597
270.5279475961729,-0.44353249722940624,34.35092381935654
270.7779475961729,-0.4413570935542904,34.35276252732243
271.0279475961729,-0.43779473365576854,34.35311651236197
271.2779475961729,-0.43435302360324557,34.3540764700146
271.5279475961729,-0.4320315742684379,34.356316115278055
271.7779475961729,-0.42947999876896437,34.358759886852695
272.0279475961729,-0.42560937219894285,34.35984109237927
272.2779475961729,-0.4213959837671122,34.36137963646494
272.5279475961729,-0.41850966955503105,34.36398797834758
272.7779475961729,-0.41655752687520553,34.366006893053004
273.0279475961729,-0.4139826639799259,34.3666189529498
273.2779475961729,-0.41104506198285345,34.36820411965865
273.5279475961729,-0.4076585305980574,34.37051530956258
273.7779475961729,-0.40495095593646746,34.372037056897675
274.0279475961729,-0.4019361755949573,34.37335107494081
274.2779475961729,-0.3976375186999104,34.37544960177541
274.5279475961729,-0.39488062532964596,34.37674974271084
274.7779475961729,-0.3919063491509144,34.37881574693414
275.0279475961729,-0.38906119145089263,34.38138539500251
275.2779475961729,-0.38677751056774173,34.38275401885004
275.5279475961729,-0.3845478721385793,34.38337827700315
275.7779475961729,-0.3821028211179836,34.385755134853845
276.0279475961729,-0.3785972214926841,34.38788418575395
276.2779475961729,-0.37507392151001134,34.38902970419398
276.5279475961729,-0.372637963681226,34.39073781140444
276.7779475961729,-0.3691033459168036,34.392058985060814
277.0279475961729,-0.36172375569851783,34.39114585697709
277.2779475961729,-0.35596612431767777,34.39461205692633
277.5279475961729,-0.3540676575098082,34.39680795925439
277.7779475961729,-0.3493936617865788,34.39792848153863
