Depth,Temperature,Salinity
100.68868453347788,-1.5188114276945357,32.458060908899704
100.93868453347788,-1.5176258487219816,32.45990109977239
101.18868453347788,-1.5164757149607113,32.46174450284934
101.43868453347788,-1.5144133366048436,32.464279459672646
101.68868453347788,-1.5123712135708487,32.467590958988374
101.93868453347788,-1.5105934683451427,32.46994110941755
102.18868453347788,-1.5084357803284967,32.47096683058489
102.43868453347788,-1.5061507547884272,32.47340483346118
102.68868453347788,-1.5036602438833322,32.47757487417323
102.93868453347788,-1.5003717479391012,32.48094076617357
103.18868453347788,-1.4942766691052907,32.48494140203413
103.43868453347788,-1.4883663255176707,32.485686357323296
103.68868453347788,-1.4847174482374557,32.4869075302152
103.93868453347788,-1.4829832614917677,32.490697174820866
104.18868453347788,-1.4820825207871884,32.4941603413602
104.43868453347788,-1.4810196125524189,32.49764124067166
104.68868453347788,-1.4801732703766128,32.50008787439085
104.93868453347788,-1.4791606299343998,32.50145592831439
105.18868453347788,-1.4757992197308714,32.50673930496706
105.43868453347788,-1.471442529675987,32.510411921738275
105.68868453347788,-1.4678702563451689,32.51326323485779
105.93868453347788,-1.4650767728592078,32.51572876061731
106.18868453347788,-1.4631918833319988,32.517717365643755
106.43868453347788,-1.4620733391530674,32.52253020577242
106.68868453347788,-1.4596458638261978,32.52664336881798
106.93868453347788,-1.455590479524656,32.53168269925878
107.18868453347788,-1.4466286018621384,32.53733673353458
107.43868453347788,-1.4318323118533147,32.54095763339669
107.68868453347788,-1.421047708104906,32.54314384351274
107.93868453347788,-1.4186755084427864,32.54631263958451
108.18868453347788,-1.4187678314595256,32.550347017107455
108.43868453347788,-1.4178906644289095,32.55414787626603
108.68868453347788,-1.4167276740738046,32.55795237157237
108.93868453347788,-1.418015287877366,32.55888597197821
109.18868453347788,-1.4196469613577454,32.56191714005733
109.43868453347788,-1.421324466357121,32.567143864220085
109.68868453347788,-1.4220174693648755,32.56970499334379
109.93868453347788,-1.4217093396765232,32.57044476598003
110.18868453347788,-1.4211744388156897,32.57352853562034
110.43868453347788,-1.4185440955953326,32.578279275374385
110.68868453347788,-1.4130808561142376,32.58191997722225
110.93868453347788,-1.4096892768600588,32.58313794193363
111.18868453347788,-1.4090805450099377,32.58546020926035
111.43868453347788,-1.4098870389135323,32.58931945346593
111.68868453347788,-1.4104206106776103,32.59370029564194
111.93868453347788,-1.4090914236372045,32.59629395069805
112.18868453347788,-1.4066142220738926,32.59822037220866
112.43868453347788,-1.4049143895907639,32.60259906905677
112.68868453347788,-1.4033180458374706,32.60616975167926
112.93868453347788,-1.4015089400610377,32.60755756887692
113.18868453347788,-1.4003011156937035,32.610014696613746
113.43868453347788,-1.398170317368195,32.61312731737094
113.68868453347788,-1.3967602519897324,32.616524353963094
113.93868453347788,-1.3960788532967947,32.61906963253479
114.18868453347788,-1.3950686129621679,32.62083878288901
114.43868453347788,-1.3948272653448883,32.62432621590757
114.68868453347788,-1.393636080373124,32.62789419792591
114.93868453347788,-1.3933500121175046,32.62992330591404
115.18868453347788,-1.3952715145495505,32.632001797411284
115.43868453347788,-1.3985846312843724,32.63614837747052
115.68868453347788,-1.3994882869528293,32.6394891402149
115.93868453347788,-1.3985041535378278,32.64127658605958
116.18868453347788,-1.3985181186301974,32.64399464714737
116.43868453347788,-1.3980735141988971,32.647670780012234
116.68868453347788,-1.396396194263695,32.65195232760223
116.93868453347788,-1.3944036235298893,32.65551697605857
117.18868453347788,-1.3918836781839008,32.65790132661375
117.43868453347788,-1.3897329324440857,32.661497062538736
117.68868453347788,-1.3877535905714222,32.665321841052794
117.93868453347788,-1.3861041065577122,32.66852065052355
118.18868453347788,-1.3846638256126258,32.672140833916046
118.43868453347788,-1.3822564117852623,32.67574857366318
118.68868453347788,-1.3809314884733783,32.67981607833253
118.93868453347788,-1.3800412747239448,32.6833850372265
119.18868453347788,-1.3784963674828778,32.68661408622605
119.43868453347788,-1.377005349613792,32.6906329498693
119.68868453347788,-1.3760886767743554,32.69431746672633
119.93868453347788,-1.3755077833614848,32.69673433128639
120.18868453347788,-1.3755797362319158,32.699834930824345
120.43868453347788,-1.3763541038139158,32.70398398532037
120.68868453347788,-1.3763969177526736,32.70653307659581
120.93868453347788,-1.3764003528665547,32.70867684357852
121.18868453347788,-1.3762701682737868,32.71129260888056
121.43868453347788,-1.376194066010819,32.71426098553823
121.68868453347788,-1.3763157764868568,32.716720869184584
121.93868453347788,-1.3763804948675749,32.71855596292855
122.18868453347788,-1.376485365778164,32.72117333383679
122.43868453347788,-1.3764945038492638,32.72462692762448
122.68868453347788,-1.3764337353389042,32.727958664690156
122.93868453347788,-1.3762057190166572,32.73156537126785
123.18868453347788,-1.37563861364248,32.73622525200377
123.43868453347788,-1.3751469948878319,32.74039655583944
123.68868453347788,-1.3749452667771316,32.74320288087793
123.93868453347788,-1.3747717336320315,32.74690240678326
124.18868453347788,-1.3748597051374374,32.75234774183425
124.43868453347788,-1.3750102732741083,32.75727316150847
124.68868453347788,-1.3752350420806998,32.76112129674288
124.93868453347788,-1.3759877724531187,32.76397367882485
125.18868453347788,-1.3767153446173055,32.766593162580996
125.43868453347788,-1.3770384266473608,32.76905448638407
125.68868453347788,-1.3773851866494748,32.77145075462074
125.93868453347788,-1.3781533732742612,32.77471120289062
126.18868453347788,-1.3792517358635676,32.77862235183191
126.43868453347788,-1.3801167845956124,32.78179684581986
126.68868453347788,-1.380899407986267,32.78457954663814
126.93868453347788,-1.3817135892691705,32.788156964259436
127.18868453347788,-1.3826519024646906,32.79211356801208
127.43868453347788,-1.3832602608682267,32.79516177233994
127.68868453347788,-1.3835594302795597,32.797890461680126
127.93868453347788,-1.3843668542803897,32.80179610654581
128.1886845334779,-1.3853868031677767,32.80573213246304
128.4386845334779,-1.3858624504205639,32.80816195643257
128.6886845334779,-1.3866538884407873,32.81201722471607
128.9386845334779,-1.3878193772122094,32.818221630456335
129.1886845334779,-1.388771641267648,32.823442520352245
129.4386845334779,-1.3895751001013192,32.82780431742551
129.6886845334779,-1.3908505666594313,32.83251381433499
129.9386845334779,-1.3927989240882128,32.836154964637686
130.1886845334779,-1.394739296041991,32.8397362505388
130.4386845334779,-1.3959718624057442,32.84318613515924
130.6886845334779,-1.398318975527796,32.84759619736494
130.9386845334779,-1.4003020853761725,32.85175404885891
131.1886845334779,-1.402024427019173,32.855840015484475
131.4386845334779,-1.4039104250814196,32.86021950466849
131.6886845334779,-1.405654188043278,32.86485867112552
131.9386845334779,-1.4069836861392275,32.869349419911835
132.1886845334779,-1.4070413126287311,32.872235895684476
132.4386845334779,-1.407065559717085,32.87541001376262
132.6886845334779,-1.4076217279569507,32.8790384885546
132.9386845334779,-1.4090029809116542,32.882390259890364
133.1886845334779,-1.410162528516513,32.88570813876644
133.4386845334779,-1.4102552007551226,32.88981560896594
133.6886845334779,-1.410051605235812,32.89413804368592
133.9386845334779,-1.410334813019333,32.89748125262913
134.1886845334779,-1.410918560465305,32.90090066788679
134.4386845334779,-1.4122651556287644,32.90494220398478
134.6886845334779,-1.4137499293197915,32.90868797229261
134.9386845334779,-1.4156800366728106,32.91277284444042
135.1886845334779,-1.4171131431003186,32.91641347912507
135.4386845334779,-1.4183789221710452,32.91959406463772
135.6886845334779,-1.4202048899374602,32.92275825922398
135.9386845334779,-1.4214259790210817,32.92504747693768
136.1886845334779,-1.4228344776044073,32.92775767275315
136.4386845334779,-1.4257181141634938,32.9318273901174
136.6886845334779,-1.4281202251514449,32.935109225362055
136.9386845334779,-1.4298533882321933,32.93806973357276
137.1886845334779,-1.4318646944021125,32.94116758646669
137.4386845334779,-1.4346752827712872,32.94408402768228
137.6886845334779,-1.437735585773998,32.946723822876955
137.9386845334779,-1.4403103209408599,32.949508353934156
138.1886845334779,-1.4432979552021437,32.95390305930364
138.4386845334779,-1.445405201002312,32.957643101149486
138.6886845334779,-1.4468054472738918,32.96041536358386
138.9386845334779,-1.449036655272494,32.96405480526847
139.1886845334779,-1.4516068747480666,32.96798576683126
139.4386845334779,-1.4536233312920015,32.971042563719365
139.6886845334779,-1.4554856595594543,32.973799341930665
139.9386845334779,-1.4573211364908056,32.976946406534225
140.1886845334779,-1.4589756176507322,32.98063752029135
140.4386845334779,-1.4607657060866108,32.983954802261216
140.6886845334779,-1.4629505689441815,32.98724361531744
140.9386845334779,-1.4643684385695102,32.991403200935316
141.1886845334779,-1.464839504232916,32.99529372488349
141.4386845334779,-1.4650249475296373,32.998426707395765
141.6886845334779,-1.4651188236959598,33.00177410612152
141.9386845334779,-1.4653422845975037,33.005320773806126
142.1886845334779,-1.465881599848948,33.00903957432203
142.4386845334779,-1.4662104309978063,33.01196494128788
142.6886845334779,-1.468697338280212,33.01733361613744
142.9386845334779,-1.4703480984226474,33.0214832625297
143.1886845334779,-1.4708462922952208,33.02428567919744
143.4386845334779,-1.4715780463157053,33.02759144847992
143.6886845334779,-1.4718492706267612,33.03045368302407
143.9386845334779,-1.4727805530100597,33.03445479521633
144.1886845334779,-1.4730537680601319,33.03740847952995
144.4386845334779,-1.4733501952835681,33.04018427301218
144.6886845334779,-1.4739907831338697,33.04369901063787
144.9386845334779,-1.4744623295661055,33.04718131443058
145.1886845334779,-1.4749634557630462,33.05041830168935
145.4386845334779,-1.4758042431199758,33.05404293018238
145.6886845334779,-1.4765531176804212,33.057798757572
145.9386845334779,-1.4771206955627352,33.06079626530148
146.1886845334779,-1.4779101703273738,33.063495514786986
146.4386845334779,-1.4799509279643948,33.06745902427058
146.6886845334779,-1.4815416750239503,33.070630492760635
146.9386845334779,-1.4831653365402666,33.07376038745334
147.1886845334779,-1.4847079790500977,33.07717975679346
147.4386845334779,-1.485635872960323,33.080447624410176
147.6886845334779,-1.4871455880827662,33.08410740557588
147.9386845334779,-1.4886444279499265,33.085961736199096
148.1886845334779,-1.492282642429192,33.08962641775873
148.4386845334779,-1.495322187347066,33.093926723509604
148.6886845334779,-1.4965565038518915,33.09757519023543
148.9386845334779,-1.4968426983701961,33.10045934936747
149.1886845334779,-1.4968867879584642,33.10356511803029
149.4386845334779,-1.4969792061980944,33.10743470696809
149.6886845334779,-1.4971245401286877,33.110641839883435
149.9386845334779,-1.4969835722030687,33.11310969768759
150.1886845334779,-1.4978133144530512,33.11673650832393
150.4386845334779,-1.4980952747781349,33.12033861489178
150.6886845334779,-1.49803156830763,33.123546815376166
150.9386845334779,-1.497282776606913,33.126736426808264
151.1886845334779,-1.4962145183012905,33.13006723094089
151.4386845334779,-1.4966050032552145,33.133591193397024
151.6886845334779,-1.4969560592056403,33.13694532651911
151.9386845334779,-1.4973808617370485,33.14086153172276
152.1886845334779,-1.4970697724754756,33.14539497311386
152.4386845334779,-1.4965101688658973,33.149784842294075
152.6886845334779,-1.4962764062760334,33.1542005135536
152.9386845334779,-1.4953399713147777,33.15946370922942
153.1886845334779,-1.493268620239083,33.165300879348614
153.4386845334779,-1.4916354772402416,33.17016786222733
153.6886845334779,-1.4901866112735107,33.173633818166564
153.9386845334779,-1.4893518656382971,33.17807002109075
154.1886845334779,-1.489157234575278,33.183394875087735
154.4386845334779,-1.4893450169324396,33.187599275691994
154.6886845334779,-1.490199131042795,33.19112712160227
154.9386845334779,-1.4912727130413483,33.19541022877707
155.1886845334779,-1.4918707280686427,33.19966944211063
155.4386845334779,-1.4934495274084298,33.20353182210569
155.6886845334779,-1.4937763591029305,33.205793745333516
155.9386845334779,-1.494497637405637,33.209080311691935
156.1886845334779,-1.4948997528709804,33.21283800610465
156.4386845334779,-1.4944899561522471,33.21570799191458
156.6886845334779,-1.4940621410397306,33.21837922121576
156.9386845334779,-1.4933323273227703,33.22199082361232
157.1886845334779,-1.492089866136935,33.22673072435954
157.4386845334779,-1.490728942315225,33.231491506587396
157.6886845334779,-1.4893938693436028,33.2359282104255
157.9386845334779,-1.4877730977682473,33.2405677573652
158.1886845334779,-1.485563669864726,33.245183832601526
158.4386845334779,-1.483248271983777,33.24931261710097
158.6886845334779,-1.4815387210969808,33.253241860113555
158.9386845334779,-1.480050772516095,33.25735955245871
159.1886845334779,-1.4782482695797876,33.26205940943647
159.4386845334779,-1.475349067127843,33.265711573978514
159.6886845334779,-1.4744231247713397,33.27048118565159
159.9386845334779,-1.4744279001512812,33.27510625406583
160.1886845334779,-1.4738148519986594,33.2786405209989
160.4386845334779,-1.4734715309207824,33.28283480092907
160.6886845334779,-1.4717733209857962,33.28610838981211
160.9386845334779,-1.4710389476465755,33.290185768124694
161.1886845334779,-1.4709020622129758,33.29496027361068
161.4386845334779,-1.4696301055963212,33.30230839958898
161.6886845334779,-1.4672100437349538,33.30989320776189
161.9386845334779,-1.4646605000164374,33.31543060420177
162.1886845334779,-1.462453956295131,33.32085381785377
162.4386845334779,-1.4605590210983288,33.326493369500774
162.6886845334779,-1.4586514345396342,33.3305509669782
162.9386845334779,-1.457714367845378,33.33448933900257
163.1886845334779,-1.4571079732595407,33.33816623671278
163.4386845334779,-1.4565118451997272,33.34175953233852
163.6886845334779,-1.4556246467989296,33.34483844889264
163.9386845334779,-1.4543687843774369,33.34708392749711
164.1886845334779,-1.4539525742956418,33.35072150750569
164.4386845334779,-1.4527001465594045,33.354430764409415
164.6886845334779,-1.4513666972794765,33.36085790864001
164.9386845334779,-1.4488966567943637,33.365838877723995
165.1886845334779,-1.4469886808791048,33.37007064981148
165.4386845334779,-1.4459264260817288,33.37621691733385
165.6886845334779,-1.4435973481926136,33.38230095203509
165.9386845334779,-1.4416360224720641,33.3876713557535
166.1886845334779,-1.4402035158348825,33.393032557841124
166.4386845334779,-1.4392457319600074,33.39832307882555
166.6886845334779,-1.4385935591858994,33.40453768240691
166.9386845334779,-1.437184386022276,33.41023415982275
167.1886845334779,-1.435115182693598,33.41501004841118
167.4386845334779,-1.4327977233960567,33.420606783265356
167.6886845334779,-1.429516303908925,33.426730523858325
167.9386845334779,-1.426876967861201,33.43230069913194
168.1886845334779,-1.4247770260020864,33.43637730759805
168.4386845334779,-1.4228704034738715,33.44079554517951
168.6886845334779,-1.4199127967484566,33.44578514116359
168.9386845334779,-1.416758880136009,33.45093568788857
169.1886845334779,-1.4142846472968584,33.4561893158625
169.4386845334779,-1.4109957465450949,33.46123503664145
169.6886845334779,-1.4079712554224035,33.4672647789222
169.9386845334779,-1.404418706707971,33.47447704722884
170.1886845334779,-1.400510513421526,33.47986169306682
170.4386845334779,-1.3956161428441036,33.486056430969235
170.6886845334779,-1.3907265394726123,33.492958506946565
170.9386845334779,-1.3866256177999365,33.49891021615412
171.1886845334779,-1.381623260280531,33.50699820570169
171.4386845334779,-1.377599120154457,33.51306245176449
171.6886845334779,-1.3744910632171299,33.51855092778307
171.9386845334779,-1.3703021621242337,33.525884805590216
172.1886845334779,-1.364795379908627,33.53610389889211
172.4386845334779,-1.3593694402708092,33.54680405044115
172.6886845334779,-1.3533649308449964,33.555966669908194
172.9386845334779,-1.3456309097079817,33.56541611897518
173.1886845334779,-1.3401981209335485,33.57390797566543
173.4386845334779,-1.3361427150027416,33.57951874827113
173.6886845334779,-1.3323049981722115,33.58453013934263
173.9386845334779,-1.3272843979581677,33.589937718269496
174.1886845334779,-1.3230309518006445,33.59513071155157
174.4386845334779,-1.3208950807310857,33.59948311509523
174.6886845334779,-1.3181423820147327,33.60360005294703
174.9386845334779,-1.314049312286935,33.60951060242974
175.1886845334779,-1.3101879725254313,33.61629629499996
175.4386845334779,-1.3069315923067686,33.62249526469494
175.6886845334779,-1.3034784940658974,33.62901338136395
175.9386845334779,-1.29976670932688,33.6363464438081
176.1886845334779,-1.2965986047297111,33.64372999721584
176.4386845334779,-1.2938840091246344,33.650461945698666
176.6886845334779,-1.290525152848317,33.656333523571654
176.9386845334779,-1.2868125823822951,33.66153329743921
177.1886845334779,-1.2833084970822275,33.667430604121286
177.4386845334779,-1.280570239227459,33.67240234802738
177.6886845334779,-1.277675061367928,33.67672799414593
177.9386845334779,-1.273619099204835,33.6821793604334
178.1886845334779,-1.2692960493909342,33.68824818611983
178.4386845334779,-1.266066410857347,33.693246355186126
178.6886845334779,-1.2628072514135722,33.69806373096796
178.9386845334779,-1.2581737625425864,33.7032041484206
179.1886845334779,-1.2541178044877968,33.70827465144877
179.4386845334779,-1.2508501127110507,33.71338883518495
179.6886845334779,-1.2470893689975078,33.71863684781711
179.9386845334779,-1.2425023613993122,33.72447357840945
180.1886845334779,-1.2380867947081942,33.730474225209065
180.4386845334779,-1.2349416992780493,33.73498594794726
180.6886845334779,-1.2324231442052724,33.73966898988673
180.9386845334779,-1.2272599103125812,33.743558450787546
181.1886845334779,-1.2241322572494258,33.7498827376959
181.4386845334779,-1.2219895474097213,33.75564556330859
181.6886845334779,-1.2184645104763927,33.760332564855766
181.9386845334779,-1.2143895875297512,33.76657877459368
182.1886845334779,-1.2099017306323883,33.771670674679115
182.4386845334779,-1.206940618097279,33.77556603638724
182.6886845334779,-1.203891042998763,33.78032515771453
182.9386845334779,-1.1991013147155267,33.787730043953516
183.1886845334779,-1.1940877285805136,33.79531535283492
183.4386845334779,-1.1898952105076832,33.801956004718136
183.6886845334779,-1.1852391835635627,33.80896892616122
183.9386845334779,-1.1796309875243225,33.81620117879701
184.1886845334779,-1.1749621186728105,33.82238699761092
184.4386845334779,-1.1706181454109192,33.82809537512213
184.6886845334779,-1.164728819803322,33.83424707335985
184.9386845334779,-1.1593921206830888,33.84156713499064
185.1886845334779,-1.1548974982868276,33.84834427170819
185.4386845334779,-1.1503717193659295,33.85508522866708
185.6886845334779,-1.1461494885634511,33.86377577235908
185.9386845334779,-1.1409822704100019,33.8705261416339
186.1886845334779,-1.1382354042784182,33.876539206302986
186.4386845334779,-1.134578780181751,33.88116733061994
186.6886845334779,-1.1297387542516615,33.886856111043436
186.9386845334779,-1.125675548606211,33.89329751995243
187.1886845334779,-1.1231994191731154,33.89830556354736
187.4386845334779,-1.1214639318271447,33.90265310553409
187.6886845334779,-1.1185996703878072,33.90784047255802
187.9386845334779,-1.115117546030327,33.91409554177034
188.1886845334779,-1.112431078829726,33.91944005958902
188.4386845334779,-1.1102128976075647,33.92434878993166
188.6886845334779,-1.1060540217145367,33.930196233648715
188.9386845334779,-1.100904438584731,33.935940392984584
