Depth,Temperature,Salinity
116.68254012649514,-1.4687206510358786,32.55202663430527
116.93254012649514,-1.4685964964675253,32.55412959055056
117.18254012649514,-1.4669601548917408,32.55652329428731
117.43254012649514,-1.466490945713526,32.55929037742993
117.68254012649514,-1.466633353911863,32.560634089115226
117.93254012649514,-1.4660339759590666,32.561919355810005
118.18254012649514,-1.4645089746997992,32.5663243871829
118.43254012649514,-1.462312840028654,32.57139227351064
118.68254012649514,-1.4600145625063459,32.573164348333165
118.93254012649514,-1.4583255295677853,32.575906085414466
119.18254012649514,-1.4563686116392902,32.579497399528826
119.43254012649514,-1.454123331497232,32.58371957626068
119.68254012649514,-1.4515310643505819,32.58584313306159
119.93254012649514,-1.448137220797648,32.58769542939229
120.18254012649514,-1.4451925164160278,32.59159023936091
120.43254012649514,-1.4442696918027316,32.594577781044265
120.68254012649514,-1.4430442324989075,32.59627390243813
120.93254012649514,-1.4410586279427515,32.598219707226114
121.18254012649514,-1.4374833506938771,32.602365454324804
121.43254012649514,-1.4347082420467498,32.60685203591655
121.68254012649514,-1.4326393960987234,32.609078600413426
121.93254012649514,-1.429798831106061,32.61078251009895
122.18254012649514,-1.427272489168843,32.61418190681032
122.43254012649514,-1.42552890632732,32.6172786573217
122.68254012649514,-1.423714512423108,32.61967538578048
122.93254012649514,-1.4203043870005847,32.62255385694979
123.18254012649514,-1.4174950837992546,32.62641292966181
123.43254012649514,-1.4154372893900673,32.629612144323914
123.68254012649514,-1.4138434508318167,32.6315303098631
123.93254012649514,-1.4121592292337004,32.633663179948236
124.18254012649514,-1.4092971115007138,32.63679782835827
124.43254012649514,-1.4060236672993172,32.639834061911465
124.68254012649514,-1.4039317966380371,32.64346313712876
124.93254012649514,-1.403056033483926,32.644867997077924
125.18254012649514,-1.4023957080470015,32.6459906920603
125.43254012649514,-1.4008107349343129,32.64841713765139
125.68254012649514,-1.3982655833337794,32.65104810196489
125.93254012649514,-1.3961124801728904,32.653251903529096
126.18254012649514,-1.3950050247508932,32.65509411274331
126.43254012649514,-1.3936965243057289,32.65701674131521
126.68254012649514,-1.3923892517968017,32.6587435999249
126.93254012649514,-1.391333540989741,32.661231654867905
127.18254012649514,-1.3891091249711789,32.662565332726956
127.43254012649514,-1.3864808832747948,32.66674520482919
127.68254012649514,-1.383964279910912,32.67190039892915
127.93254012649514,-1.380478808964003,32.67229250883166
128.18254012649516,-1.3773873027845507,32.67656923062222
128.43254012649516,-1.3761481302374492,32.6831573069796
128.68254012649516,-1.3760790526519382,32.685356587418006
128.93254012649516,-1.375714675897045,32.68603513564938
129.18254012649516,-1.3748873893171396,32.69067902479121
129.43254012649516,-1.3736628850247057,32.69696871587632
129.68254012649516,-1.3721323741656273,32.70184621806691
129.93254012649516,-1.3716464332913596,32.708111502191876
130.18254012649516,-1.3709620210748428,32.7105177610771
130.43254012649516,-1.370960754321439,32.714271977598976
130.68254012649516,-1.3710578670980698,32.71786055528809
130.93254012649516,-1.3711237220091486,32.720418754533185
131.18254012649516,-1.3717292963186931,32.721884840059516
131.43254012649516,-1.3728695903989547,32.723391169827316
131.68254012649516,-1.3735513742300864,32.72606528655908
131.93254012649516,-1.373165182348339,32.72844710565768
132.18254012649516,-1.3729903733250652,32.73056869271723
132.43254012649516,-1.3739331651376612,32.73521119569706
132.68254012649516,-1.3738041428046028,32.7380151180501
132.93254012649516,-1.3739052487550272,32.74054779096738
133.18254012649516,-1.3738257486593184,32.74444477114754
133.43254012649516,-1.373373706786316,32.749629145877094
133.68254012649516,-1.3734752538003467,32.75532767385485
133.93254012649516,-1.373486637560258,32.760361859142584
134.18254012649516,-1.3737671957752333,32.765792273400244
134.43254012649516,-1.3736383011756965,32.76928355117126
134.68254012649516,-1.3736383014550138,32.771561084206866
134.93254012649516,-1.3738134377459013,32.77380670919685
135.18254012649516,-1.3739131153506778,32.77661396317849
135.43254012649516,-1.3740946045207114,32.779463631484234
135.68254012649516,-1.3743667604598746,32.78198006057408
135.93254012649516,-1.374479652523928,32.78545093854565
136.18254012649516,-1.3753031164771747,32.789773760238866
136.43254012649516,-1.375225952604818,32.79274206602969
136.68254012649516,-1.37647629424227,32.7973658624923
136.93254012649516,-1.3777805886522623,32.80261262654049
137.18254012649516,-1.3776936317408779,32.80636536918071
137.43254012649516,-1.378160905298988,32.81032888156948
137.68254012649516,-1.378653938510308,32.81410135917222
137.93254012649516,-1.3800309002651112,32.81793841088646
138.18254012649516,-1.3814770982587643,32.82102497298779
138.43254012649516,-1.382729293558206,32.823894020831446
138.68254012649516,-1.3839053627771885,32.82742536314645
138.93254012649516,-1.385787213537238,32.83103237224997
139.18254012649516,-1.388705346941972,32.83420044603241
139.43254012649516,-1.3915321055509866,32.83726152909422
139.68254012649516,-1.3934977240857638,32.84049716406391
139.93254012649516,-1.3960755395020257,32.84403644804883
140.18254012649516,-1.3989836571306518,32.84726240010429
140.43254012649516,-1.4012524198588225,32.84862602543404
140.68254012649516,-1.4024591842587029,32.84988774535394
140.93254012649516,-1.4041867518939954,32.85329840303078
141.18254012649516,-1.4071375637956773,32.857568057549784
141.43254012649516,-1.4094298300230683,32.86023407428056
141.68254012649516,-1.4124684003950154,32.86219092463139
141.93254012649516,-1.4148719727581,32.86525087248484
142.18254012649516,-1.415949397315783,32.86944770812424
142.43254012649516,-1.4154866439076434,32.87229060970551
142.68254012649516,-1.4132211239004808,32.87685552400721
142.93254012649516,-1.4115234453010477,32.8827847305196
143.18254012649516,-1.4128951666568228,32.885342145601896
143.43254012649516,-1.4150709716029257,32.887823743356236
143.68254012649516,-1.4147857547408549,32.893912126698005
143.93254012649516,-1.4139424380699614,32.89737102642611
144.18254012649516,-1.4182266768091276,32.898361628530466
144.43254012649516,-1.4270272607051468,32.9002033045705
144.68254012649516,-1.4331698227272112,32.90359450419925
144.93254012649516,-1.4339693519821843,32.90674973446035
145.18254012649516,-1.4338604872327385,32.90858611138332
145.43254012649516,-1.4341954765283376,32.91050401200165
145.68254012649516,-1.4334726594192937,32.914870926567055
145.93254012649516,-1.4328829914316925,32.92027244254747
146.18254012649516,-1.429919494740042,32.923499726477345
146.43254012649516,-1.4243190472596683,32.92676704591634
146.68254012649516,-1.4203253871179735,32.93266405002362
146.93254012649516,-1.4177038281012113,32.93566714503803
147.18254012649516,-1.4172878944268832,32.94108992205836
147.43254012649516,-1.4181839690294622,32.94616981601685
147.68254012649516,-1.4202764562713641,32.9491198805064
147.93254012649516,-1.423042309325025,32.95230489732733
148.18254012649516,-1.4295191321348748,32.95689582852945
148.43254012649516,-1.4388735296020474,32.96083403442976
148.68254012649516,-1.442535910823003,32.96298920210559
148.93254012649516,-1.4431530430187218,32.96594236871691
149.18254012649516,-1.4442732175343491,32.97084274628975
149.43254012649516,-1.444709975482746,32.97473737389512
149.68254012649516,-1.4454988986198005,32.97711058150128
149.93254012649516,-1.44547649587914,32.97963938822132
150.18254012649516,-1.4441534165259882,32.984271422910716
150.43254012649516,-1.4442881340062446,32.99000362993837
150.68254012649516,-1.4438101750026502,32.991549814325566
150.93254012649516,-1.4448915960477926,32.99450955032499
151.18254012649516,-1.4469720060840283,32.999275005947915
151.43254012649516,-1.4485880244326486,33.002828746832506
151.68254012649516,-1.4500856684176602,33.00539341144952
151.93254012649516,-1.4515534330746516,33.00861142750876
152.18254012649516,-1.4516567103011242,33.011553440228255
152.43254012649516,-1.4513616765511965,33.01460123763232
152.68254012649516,-1.4498570886959874,33.017407462793805
152.93254012649516,-1.4486527261932327,33.020635012630564
153.18254012649516,-1.4482809237313923,33.023992690038526
153.43254012649516,-1.4477706120613696,33.026216395081924
153.68254012649516,-1.447346202507329,33.028349484704705
153.93254012649516,-1.4477396636824502,33.0325053316836
154.18254012649516,-1.4475304611092723,33.03582614354574
154.43254012649516,-1.4472461605513958,33.03968931314545
154.68254012649516,-1.4470865055517699,33.043900248007304
154.93254012649516,-1.4468326721008864,33.0477653099285
155.18254012649516,-1.4469880224419431,33.0516080348588
155.43254012649516,-1.4475496443205687,33.05572635730953
155.68254012649516,-1.4479745732701303,33.06021829242591
155.93254012649516,-1.4485787540785535,33.065139107932225
156.18254012649516,-1.448744290299136,33.06903088845382
156.43254012649516,-1.4487926002840408,33.072541926099476
156.68254012649516,-1.4487293207698722,33.07639575604414
156.93254012649516,-1.448554746139713,33.07996018766477
157.18254012649516,-1.4479882831740696,33.08358981377754
157.43254012649516,-1.446219072830963,33.08772605010196
157.68254012649516,-1.4437927483983197,33.09144967635455
157.93254012649516,-1.4435326397669686,33.09541523892468
158.18254012649516,-1.4447347908821535,33.09921239671301
158.43254012649516,-1.4452978843507653,33.10253651084244
158.68254012649516,-1.445663832607306,33.10646713230423
158.93254012649516,-1.4455933071496363,33.110521875669455
159.18254012649516,-1.4443121938552157,33.114096620527114
159.43254012649516,-1.4429514628599074,33.11822900014215
159.68254012649516,-1.4423820073067593,33.122546991368274
159.93254012649516,-1.4418807271412755,33.12646158514964
160.18254012649516,-1.4424671294145255,33.130570897833884
160.43254012649516,-1.4455660711829454,33.13461231377503
160.68254012649516,-1.451109692376268,33.1381229016159
160.93254012649516,-1.45672943118797,33.14172365970491
161.18254012649516,-1.4593676279713947,33.14631171849343
161.43254012649516,-1.4587900940501186,33.15128814094575
161.68254012649516,-1.4582253946711357,33.15539565118941
161.93254012649516,-1.4579879037821697,33.16010355906503
162.18254012649516,-1.4571109393006754,33.16675017612519
162.43254012649516,-1.456546468505852,33.171470439589164
162.68254012649516,-1.456670598898477,33.17460859725102
162.93254012649516,-1.4566998844174122,33.18059765832418
163.18254012649516,-1.457546000145711,33.1852454579328
163.43254012649516,-1.458225850309834,33.18734758065141
163.68254012649516,-1.4591514717189171,33.18841508478967
163.93254012649516,-1.4594481491361906,33.18978946901985
164.18254012649516,-1.459214647403987,33.192879101374324
164.43254012649516,-1.4589005965326534,33.19738077029022
164.68254012649516,-1.4580140527292202,33.20167282291178
164.93254012649516,-1.4566600159902854,33.205640365009096
165.18254012649516,-1.4547731923748601,33.208331406999264
165.43254012649516,-1.4532372773410311,33.21262383108534
165.68254012649516,-1.45260675712262,33.21822791525977
165.93254012649516,-1.452370457878012,33.22262345898376
166.18254012649516,-1.452214293177858,33.22740752139017
166.43254012649516,-1.4513587587639032,33.233614287923864
166.68254012649516,-1.448058101446182,33.23631053509265
166.93254012649516,-1.4456998451929415,33.243100231580925
167.18254012649516,-1.443335858278729,33.248671380676626
167.43254012649516,-1.4418369589338995,33.25193232983481
167.68254012649516,-1.439474533755547,33.256598604987104
167.93254012649516,-1.436299705428453,33.2627633770152
168.18254012649516,-1.4355262514900333,33.26730990880474
168.43254012649516,-1.434332738797569,33.27047069511687
168.68254012649516,-1.4328654157907885,33.27558775238933
168.93254012649516,-1.431799543890855,33.28080760505894
169.18254012649516,-1.4308201786807018,33.28486682260583
169.43254012649516,-1.428883700634853,33.29012845882882
169.68254012649516,-1.4261334892038788,33.29831399191465
169.93254012649516,-1.425848673824765,33.30674974928776
170.18254012649516,-1.4303984602350557,33.311673521640216
170.43254012649516,-1.4317924449876207,33.31332134744814
170.68254012649516,-1.4316608006019962,33.318719605599206
170.93254012649516,-1.4301182713302627,33.32408109044541
171.18254012649516,-1.4281205411739626,33.32754503998885
171.43254012649516,-1.4261169082866594,33.33287406198135
171.68254012649516,-1.422596719286582,33.339533844783794
171.93254012649516,-1.4204237183214283,33.34590441466699
172.18254012649516,-1.4154392836681107,33.352298223272506
172.43254012649516,-1.4121503320033233,33.35967517490554
172.68254012649516,-1.4071081810282484,33.36414185999798
172.93254012649516,-1.403120512961863,33.36973519325314
173.18254012649516,-1.4036486743410357,33.37774304171188
173.43254012649516,-1.4049619856368125,33.38169032122526
173.68254012649516,-1.4073496963868999,33.38428138110139
173.93254012649516,-1.4076454328060757,33.38810351931248
174.18254012649516,-1.4065737991461984,33.39272093651581
174.43254012649516,-1.405556218264475,33.39681144729599
174.68254012649516,-1.4045206612229453,33.39977738282735
174.93254012649516,-1.4033582302364787,33.40312678236415
175.18254012649516,-1.40204478756957,33.40736828671214
175.43254012649516,-1.4002138209217367,33.4101305061088
175.68254012649516,-1.3994863032812705,33.41334420230197
175.93254012649516,-1.3981490891703379,33.41677215882348
176.18254012649516,-1.3953885844269678,33.42151845822085
176.43254012649516,-1.391018012935498,33.42511839190383
176.68254012649516,-1.3877314014292226,33.42890693306803
176.93254012649516,-1.386910487272518,33.4349912196354
177.18254012649516,-1.3858164815769767,33.43992624615856
177.43254012649516,-1.3849400347687228,33.44558101758102
177.68254012649516,-1.3824415711074969,33.453123749642906
177.93254012649516,-1.3789561316845746,33.460452096977065
178.18254012649516,-1.3744988000720373,33.46652423071991
178.43254012649516,-1.3702253591978568,33.473763842800054
178.68254012649516,-1.3676328434780298,33.48061122679953
178.93254012649516,-1.3660894331453548,33.483856374347056
179.18254012649516,-1.3636843825714902,33.488806396550906
179.43254012649516,-1.35733062794919,33.49478984580875
179.68254012649516,-1.3502635895404673,33.50284620632122
179.93254012649516,-1.3465901499930426,33.51008996656198
180.18254012649516,-1.3443026603979693,33.515313644181155
180.43254012649516,-1.342418738723227,33.52084354689575
180.68254012649516,-1.3418807654376887,33.52720077567462
180.93254012649516,-1.3401606473733922,33.533280632131195
181.18254012649516,-1.3387512962937902,33.5413084412406
181.43254012649516,-1.3370425226606646,33.54802055919788
181.68254012649516,-1.3345343658361073,33.5535665229106
181.93254012649516,-1.3320159629929311,33.56019528034741
182.18254012649516,-1.3298847699547167,33.567493769224505
182.43254012649516,-1.3280405213532083,33.574622309791856
182.68254012649516,-1.3257207810876563,33.582616105709086
182.93254012649516,-1.322015627851451,33.59161614006999
183.18254012649516,-1.3181778321140318,33.600046114846904
183.43254012649516,-1.3132612127246637,33.607969395569796
183.68254012649516,-1.308257781175986,33.61716490953021
183.93254012649516,-1.303878145091169,33.62589801978722
184.18254012649516,-1.3006145103906932,33.63516529651908
184.43254012649516,-1.2971915272956014,33.645013887232004
184.68254012649516,-1.2931833243352282,33.65305640044017
184.93254012649516,-1.2904367716407121,33.660055610559844
185.18254012649516,-1.2864363812201889,33.66566166809516
185.43254012649516,-1.2829375570802255,33.67046888477257
185.68254012649516,-1.28068843750359,33.67633290138338
185.93254012649516,-1.2786250586503722,33.67930243984209
186.18254012649516,-1.2762841765165176,33.68143286543883
186.43254012649516,-1.2737458529353227,33.68680353899463
186.68254012649516,-1.2707140597132551,33.6912327075953
186.93254012649516,-1.2677670072450766,33.69590631334224
187.18254012649516,-1.2646206098389783,33.700704757459086
187.43254012649516,-1.261750498597747,33.704769769361576
187.68254012649516,-1.258122781669575,33.71000800739537
187.93254012649516,-1.2538391427285618,33.71603679763276
188.18254012649516,-1.250428439506051,33.72026037973125
188.43254012649516,-1.2474870348377876,33.72400317113659
188.68254012649516,-1.2445658112592317,33.72873009035277
188.93254012649516,-1.2409765681923448,33.73383162378035
189.18254012649516,-1.2372005835365538,33.73959609785541
189.43254012649516,-1.2336833856641962,33.744897898799216
189.68254012649516,-1.2303978322943903,33.748699158587854
189.93254012649516,-1.2272133765402438,33.75284319361152
190.18254012649516,-1.22382023122493,33.75882852707141
190.43254012649516,-1.2204755085928733,33.763472727177536
190.68254012649516,-1.217028651378268,33.76785621398288
190.93254012649516,-1.2124865850309678,33.77342039206774
191.18254012649516,-1.2074935626307937,33.7796098047742
191.43254012649516,-1.203542139432687,33.785211697783254
191.68254012649516,-1.1998905274234373,33.78996960417098
191.93254012649516,-1.1956144078935207,33.795270509937126
192.18254012649516,-1.191363989874631,33.80174187819991
192.43254012649516,-1.1864527683432475,33.80631904747488
192.68254012649516,-1.1815978616985827,33.81226366211669
192.93254012649516,-1.177301841180861,33.81998190557747
193.18254012649516,-1.1732812293901866,33.825329520830394
193.43254012649516,-1.1701950118762834,33.82966090611111
193.68254012649516,-1.1672719314053843,33.83325830184538
193.93254012649516,-1.1635945638187681,33.83700257803643
194.18254012649516,-1.1593500654053135,33.842359987247406
194.43254012649516,-1.1547219595877467,33.84862719125868
194.68254012649516,-1.1497354101746022,33.854649516082745
194.93254012649516,-1.1444547981057018,33.86121149532107
195.18254012649516,-1.1391111888426588,33.868384671572514
195.43254012649516,-1.1352391577383791,33.87238822747183
195.68254012649516,-1.1320808230984696,33.87538036895966
195.93254012649516,-1.1281112953483443,33.879611623687246
196.18254012649516,-1.1235060320631316,33.88565805143937
196.43254012649516,-1.1192320328861218,33.89184817675119
196.68254012649516,-1.1146385562202445,33.89639721868307
196.93254012649516,-1.1086510334422726,33.90267118086429
197.18254012649516,-1.1035174692724796,33.90849465833179
197.43254012649516,-1.0989078811031237,33.91387869944476
197.68254012649516,-1.093919544421655,33.92002108720101
197.93254012649516,-1.0880039346201387,33.92803320843965
198.18254012649516,-1.0815907298971263,33.93691555514448
198.43254012649516,-1.0761173997745264,33.94341775106268
198.68254012649516,-1.070272165179025,33.94920273991285
198.93254012649516,-1.0654766691188906,33.95499559661431
199.18254012649516,-1.0615955919107585,33.9595606717736
199.43254012649516,-1.0576487128940149,33.963736161139316
199.68254012649516,-1.0535087391110685,33.9689774229514
199.93254012649516,-1.0492313718276092,33.97401576252073
200.18254012649516,-1.0444797931139804,33.97772116920159
200.43254012649516,-1.0397867408098496,33.98328329916885
200.68254012649516,-1.0350289999241336,33.989704200826644
200.93254012649516,-1.0308279164502019,33.99513233285277
201.18254012649516,-1.0259967505489427,34.00006342698837
201.43254012649516,-1.0206725588541985,34.006841807709456
201.68254012649516,-1.016346687221347,34.01436055245579
201.93254012649516,-1.01190592010207,34.01897552391823
202.18254012649516,-1.0073797254173074,34.0253492446469
202.43254012649516,-1.0025147425987562,34.03111156012637
202.68254012649516,-0.9988958607011663,34.03549262638693
202.93254012649516,-0.9955656340537735,34.03982685577243
203.18254012649516,-0.9913056783683825,34.045157063677365
203.43254012649516,-0.9871933059179459,34.05074978896556
203.68254012649516,-0.9832410007518865,34.0547505727148
203.93254012649516,-0.9799308754696692,34.05947072305796
