Depth,Temperature,Salinity
162.26979751997558,-1.4672949655035057,33.08188989744124
162.51979751997558,-1.4646612539169135,33.087343521927956
162.76979751997558,-1.4631211685208665,33.09130155986123
163.01979751997558,-1.4621386464398063,33.095271741251
163.26979751997558,-1.4615017626620062,33.09965241610661
163.51979751997558,-1.4612774288407147,33.10340611621222
163.76979751997558,-1.461108265817539,33.10585285399569
164.01979751997558,-1.4609841358734093,33.10875162846015
164.26979751997558,-1.4608628982833358,33.11199459705926
164.51979751997558,-1.4605309190437135,33.114357815862384
164.76979751997558,-1.460156652141591,33.12071672881126
165.01979751997558,-1.4597237727770316,33.126808752878915
165.26979751997558,-1.4591962558123728,33.12976932343583
165.51979751997558,-1.4581934562752437,33.13274274206673
165.76979751997558,-1.4559525541873233,33.13733442533082
166.01979751997558,-1.4541669820450582,33.13879520929817
166.26979751997558,-1.4530352017121562,33.14102416244203
166.51979751997558,-1.4517389546051722,33.146513796771565
166.76979751997558,-1.4502056683536593,33.15072783831208
167.01979751997558,-1.4485796872735832,33.15949727817079
167.26979751997558,-1.4473049089140269,33.16613964976825
167.51979751997558,-1.4465165790554073,33.1696645918807
167.76979751997558,-1.4457500814744282,33.174953958918195
168.01979751997558,-1.4444637556971798,33.17947706934924
168.26979751997558,-1.4434826720781155,33.183703345906515
168.51979751997558,-1.442681113363087,33.186684851797004
168.76979751997558,-1.441762830178114,33.18894675041708
169.01979751997558,-1.4408077308689482,33.194372533815596
169.26979751997558,-1.4383656474751718,33.203036613007605
169.51979751997558,-1.4362324955614227,33.2089681385204
169.76979751997558,-1.4356927021418715,33.211387703990226
170.01979751997558,-1.4356523687764664,33.215235841888784
170.26979751997558,-1.4358268699601875,33.21768778461319
170.51979751997558,-1.4351040676559554,33.22159232522087
170.76979751997558,-1.4347566928477486,33.226494333337946
171.01979751997558,-1.4355198586914897,33.230037770500545
171.26979751997558,-1.4343386999004895,33.23538630852743
171.51979751997558,-1.43272747307926,33.2441463304248
171.76979751997558,-1.4300427728218645,33.25262907960511
172.01979751997558,-1.4273445636914177,33.257434691910674
172.26979751997558,-1.427026843978642,33.2602463419258
172.51979751997558,-1.4264048157106062,33.26555509466549
172.76979751997558,-1.4253986679109587,33.27066300089453
173.01979751997558,-1.423773187339444,33.27629533109859
173.26979751997558,-1.421884208465686,33.28233693062522
173.51979751997558,-1.42093763426462,33.285597711797735
173.76979751997558,-1.419216279812606,33.29213469917784
174.01979751997558,-1.4159010001287322,33.30444624585765
174.26979751997558,-1.4123556251786167,33.31576220071513
174.51979751997558,-1.410089749512756,33.32250937132862
174.76979751997558,-1.408596958686241,33.33181179714123
175.01979751997558,-1.4071473383819493,33.336340413705045
175.26979751997558,-1.4057348699067191,33.340028939181025
175.51979751997558,-1.4049935180025421,33.34690361087246
175.76979751997558,-1.404653152406768,33.35251713297427
176.01979751997558,-1.4017268347835192,33.35767317250704
176.26979751997558,-1.3986664182931197,33.36675009799569
176.51979751997558,-1.396216051167208,33.37870955316925
176.76979751997558,-1.3921474272862837,33.38850248962262
177.01979751997558,-1.3896180987723972,33.399181110431584
177.26979751997558,-1.3881255923895812,33.40583209624009
177.51979751997558,-1.3867905519348238,33.40849581220409
177.76979751997558,-1.3857249856466942,33.41262086142118
178.01979751997558,-1.3843554085201677,33.41817038639682
178.26979751997558,-1.3836614792187798,33.42731182390256
178.51979751997558,-1.3836164910454707,33.43676770870139
178.76979751997558,-1.3830545245985975,33.443917737218314
179.01979751997558,-1.3816063764573876,33.450036343119336
179.26979751997558,-1.3804634472072017,33.4552027166409
179.51979751997558,-1.378506245011023,33.45928054205911
179.76979751997558,-1.3770378750417318,33.466112888369096
180.01979751997558,-1.3749528031582499,33.47623720649177
180.26979751997558,-1.3700396010890363,33.48625034814763
180.51979751997558,-1.3656898033534073,33.49570948124725
180.76979751997558,-1.3624607119073882,33.50289456818875
181.01979751997558,-1.3602278780649637,33.51028617142208
181.26979751997558,-1.3583221786961652,33.517742022949534
181.51979751997558,-1.3557035498696222,33.52088637284333
181.76979751997558,-1.3537042088959883,33.52845957174756
182.01979751997558,-1.3502912628846482,33.53850360641028
182.26979751997558,-1.345044026285147,33.5468300710137
182.51979751997558,-1.341066923406405,33.55476060682207
182.76979751997558,-1.3382232478743992,33.56100437838635
183.01979751997558,-1.335470584301167,33.566629392539966
183.26979751997558,-1.3328232648227822,33.571803855515924
183.51979751997558,-1.3297701222773417,33.57776556461059
183.76979751997558,-1.32427177301978,33.588631884081444
184.01979751997558,-1.3192145110540698,33.59911730331065
184.26979751997558,-1.3160098123231687,33.60705508015357
184.51979751997558,-1.3136588998739174,33.61202827225802
184.76979751997558,-1.3109556660283468,33.61523385865651
185.01979751997558,-1.3080592400000677,33.62236163969425
185.26979751997558,-1.303869152383536,33.63231225992172
185.51979751997558,-1.2983726299005567,33.64274548222055
185.76979751997558,-1.293503808370105,33.650584460410336
186.01979751997558,-1.2910895534747338,33.653450906115076
186.26979751997558,-1.288781874957711,33.657318463452654
186.51979751997558,-1.287152595128019,33.661000842738325
186.76979751997558,-1.2856947652738322,33.6637992645053
187.01979751997558,-1.2825842360554274,33.66879819601132
187.26979751997558,-1.2791425280477389,33.67585838995573
187.51979751997558,-1.2765667375558731,33.68047307662104
187.76979751997558,-1.2741485449525494,33.68363685232847
188.01979751997558,-1.2712281621099604,33.68771021263663
188.26979751997558,-1.268014417970367,33.69268892330364
188.51979751997558,-1.2639626413294167,33.699307951007384
188.76979751997558,-1.2582230468333362,33.708864556371154
189.01979751997558,-1.2519996758341463,33.71799758337094
189.26979751997558,-1.2467043722558773,33.72451352194527
189.51979751997558,-1.2419817302156968,33.73245495735069
189.76979751997558,-1.2378317269189487,33.74296275393685
190.01979751997558,-1.2337534629357427,33.74754858890501
190.26979751997558,-1.229747652580664,33.74907818288519
190.51979751997558,-1.2258051975231599,33.75607398891931
190.76979751997558,-1.2207027688566865,33.76301673396536
191.01979751997558,-1.2139455573366098,33.77021324877476
191.26979751997558,-1.2080175183281772,33.77785807185783
191.51979751997558,-1.2037670546078045,33.78455747250472
191.76979751997558,-1.1991703720263345,33.789512913199204
192.01979751997558,-1.1948755972336376,33.79473782843637
192.26979751997558,-1.1907742679901014,33.80248366872659
192.51979751997558,-1.185259605262837,33.80963627989984
192.76979751997558,-1.1777201196649008,33.8167750711144
193.01979751997558,-1.1704471062191588,33.83213732336387
193.26979751997558,-1.164324968738236,33.840022263077714
193.51979751997558,-1.1596377970157015,33.84387054045372
193.76979751997558,-1.156031341885254,33.85157022626095
194.01979751997558,-1.152964174471879,33.85857174841257
194.26979751997558,-1.150706555933178,33.859584667567226
194.51979751997558,-1.1482715515105653,33.86472510196193
194.76979751997558,-1.1450828630939458,33.87399722534889
195.01979751997558,-1.1400837269592314,33.883183358992824
195.26979751997558,-1.132074265876455,33.89834700824057
195.51979751997558,-1.127397672311494,33.90581374817089
195.76979751997558,-1.1245938365837487,33.90959627854642
196.01979751997558,-1.1210819435521728,33.915640735497085
196.26979751997558,-1.118742929258603,33.91862781641525
196.51979751997558,-1.116497911148514,33.92120174317263
196.76979751997558,-1.1145687471955297,33.92561269923948
197.01979751997558,-1.1121348413551628,33.93287324972267
197.26979751997558,-1.1080530054733826,33.94221362160427
197.51979751997558,-1.1030915895332396,33.95135544235992
197.76979751997558,-1.0991752814136615,33.95927320178273
198.01979751997558,-1.095200255650977,33.96400868205814
198.26979751997558,-1.0910749824834296,33.96790047973339
198.51979751997558,-1.0874278435123998,33.974086427044675
198.76979751997558,-1.0826236592442222,33.98074764927506
199.01979751997558,-1.0762833270417052,33.989265340142225
199.26979751997558,-1.0712806173718452,33.99696068778851
199.51979751997558,-1.067977963088158,34.00332056746003
199.76979751997558,-1.0643604149114034,34.009732024601576
200.01979751997558,-1.060881306007338,34.014010404126296
200.26979751997558,-1.0577345353323069,34.017819568721904
200.51979751997558,-1.0548634577176306,34.02085383174588
200.76979751997558,-1.0513968949979944,34.02452751691463
201.01979751997558,-1.0462508708837515,34.03164438365402
201.26979751997558,-1.040391284362367,34.03774057579213
201.51979751997558,-1.0356120684638581,34.04296314347131
201.76979751997558,-1.0323847109228486,34.04787736984249
202.01979751997558,-1.029731801216575,34.051712629639326
202.26979751997558,-1.0265367446611515,34.05496254966295
202.51979751997558,-1.0227064460998287,34.060610781762385
202.76979751997558,-1.0200790655568954,34.068128024281876
203.01979751997558,-1.0180535340471122,34.075459028528535
203.26979751997558,-1.0148117929201,34.08095624705931
203.51979751997558,-1.010974603662112,34.08407898297704
203.76979751997558,-1.0080087324850977,34.08647694905743
204.01979751997558,-1.0067945567255354,34.08931298654261
204.26979751997558,-1.0042173163059875,34.09306154216491
204.51979751997558,-0.9972052107480128,34.09783474123546
204.76979751997558,-0.990879309422636,34.1031354807996
205.01979751997558,-0.9854128197801142,34.10717015701175
205.26979751997558,-0.9810403208413979,34.110597530900925
205.51979751997558,-0.9780987175300115,34.11426155880828
205.76979751997558,-0.975422244638602,34.11641213268976
206.01979751997558,-0.973374100491449,34.116923892217095
206.26979751997558,-0.9674526956256625,34.12137971387168
206.51979751997558,-0.9587637560935802,34.12868613252871
206.76979751997558,-0.9530194042568654,34.13266956338336
207.01979751997558,-0.9504566284344288,34.13377626269674
207.26979751997558,-0.947885347153616,34.13628998648946
207.51979751997558,-0.9447791629790954,34.13966129520926
207.76979751997558,-0.9416547852011456,34.142393369556
208.01979751997558,-0.9378595672946998,34.14579841291514
208.26979751997558,-0.9325480887908544,34.15118209507003
208.51979751997558,-0.9268028410281784,34.15551538887478
208.76979751997558,-0.9232406601683337,34.15808849287774
209.01979751997558,-0.9212425486021971,34.15918823501373
209.26979751997558,-0.9171690045465519,34.15981595796297
209.51979751997558,-0.9131171671550838,34.16678250038249
209.76979751997558,-0.908099752852135,34.17240178802137
210.01979751997558,-0.9039969424116896,34.17308286303494
210.26979751997558,-0.9016311415892795,34.17408660708233
210.51979751997558,-0.8971008461069255,34.17857299589257
210.76979751997558,-0.8933614391916676,34.17984560266563
211.01979751997558,-0.8909172899747488,34.17914901213554
211.26979751997558,-0.8863104702322502,34.18245964787932
211.51979751997558,-0.8783167471692671,34.190238779394406
211.76979751997558,-0.8722302843193762,34.19444068379912
212.01979751997558,-0.8687621777396649,34.194366316420464
212.26979751997558,-0.8644529008037314,34.19514916359496
212.51979751997558,-0.8589110143876216,34.19902681909592
212.76979751997558,-0.854753719414291,34.202541957323376
213.01979751997558,-0.8505834594793065,34.20332613088071
213.26979751997558,-0.8444210776159607,34.20774375312007
213.51979751997558,-0.8383866911770138,34.212808670690485
213.76979751997558,-0.8348228330991404,34.2137904626135
214.01979751997558,-0.8327950650566193,34.21397169187171
214.26979751997558,-0.8302550411305847,34.218307543825794
214.51979751997558,-0.8264158250533277,34.221164602433426
214.76979751997558,-0.8228267566990785,34.222022705628234
215.01979751997558,-0.8189634996254636,34.22591660178922
215.26979751997558,-0.8105437374237083,34.232359793662404
215.51979751997558,-0.8036642055013533,34.235942572531435
215.76979751997558,-0.8004444578029395,34.236346442106736
216.01979751997558,-0.7982694927974509,34.23746697124855
216.26979751997558,-0.794562350246596,34.241129231583216
216.51979751997558,-0.7892687582958691,34.244219150784595
216.76979751997558,-0.7845659465315673,34.24774756285037
217.01979751997558,-0.7814204814787665,34.24972411908193
217.26979751997558,-0.7793543996613017,34.24941809047347
217.51979751997558,-0.7764456224157131,34.250960621901925
217.76979751997558,-0.7697444629521452,34.25739788262174
218.01979751997558,-0.7633627537777266,34.26121859954156
218.26979751997558,-0.7593846939183005,34.26210780573479
218.51979751997558,-0.7566814988404053,34.26417693602313
218.76979751997558,-0.7548693066549648,34.26502266113457
219.01979751997558,-0.753550413051534,34.26500616476587
219.26979751997558,-0.7524572840797611,34.264949498093756
219.51979751997558,-0.7499991234404852,34.266062686221154
219.76979751997558,-0.7446302559225594,34.26925310325912
220.01979751997558,-0.7395067278731083,34.27248547855502
220.26979751997558,-0.7359123120835561,34.27462794261883
220.51979751997558,-0.7336773346718944,34.275079076150824
220.76979751997558,-0.7321098303602339,34.27504303153529
221.01979751997558,-0.7290087378960481,34.277602133676815
221.26979751997558,-0.7208402871106239,34.282604550473366
221.51979751997558,-0.7144822377487203,34.28449333579031
221.76979751997558,-0.7097600587747149,34.28676415523972
222.01979751997558,-0.7035479769003591,34.28938898555745
222.26979751997558,-0.6973413543910572,34.287821033048836
222.51979751997558,-0.6904240728510564,34.29424852541753
222.76979751997558,-0.6825223408714108,34.30040316134387
223.01979751997558,-0.6767541371450627,34.300284867007065
223.26979751997558,-0.674321035961918,34.29887649738122
223.51979751997558,-0.6716408826946685,34.30219381715565
223.76979751997558,-0.6677525262047221,34.30307950647465
224.01979751997558,-0.6652329123842899,34.30137949916961
224.26979751997558,-0.661519374038839,34.30299472003097
224.51979751997558,-0.6539578768639456,34.30963444622804
224.76979751997558,-0.6487114903722307,34.31373768422837
225.01979751997558,-0.6454179425410052,34.31431510057572
225.26979751997558,-0.6432998026729546,34.31412283881418
225.51979751997558,-0.6415838099234086,34.314461767666835
225.76979751997558,-0.6392406201767219,34.31504461585507
226.01979751997558,-0.6363489600899074,34.31783245352283
226.26979751997558,-0.6296373006182278,34.32110371139449
226.51979751997558,-0.6232356554966918,34.323200659054244
226.76979751997558,-0.6214837415047613,34.3246496757716
227.01979751997558,-0.6199558190611834,34.326541901489264
227.26979751997558,-0.6184267630346219,34.32691916386387
227.51979751997558,-0.6177215479043551,34.32708662098354
227.76979751997558,-0.6152013694325571,34.32950936384765
228.01979751997558,-0.6087334389681488,34.333225626758306
228.26979751997558,-0.6023106894181215,34.334612271195475
228.51979751997558,-0.5993292344400479,34.336054561602225
228.76979751997558,-0.5979396902185847,34.33787063274522
229.01979751997558,-0.5949366807290397,34.33778773549787
229.26979751997558,-0.5901896509534814,34.338298376820006
229.51979751997558,-0.5858082016317852,34.34505997660274
229.76979751997558,-0.580128654480584,34.34888996570234
230.01979751997558,-0.5761336777376594,34.349710365747974
230.26979751997558,-0.5747502731448774,34.350078050996146
230.51979751997558,-0.5736892847170232,34.35013811718901
230.76979751997558,-0.5727644862480685,34.35038549851011
231.01979751997558,-0.5716603013868323,34.350661334082545
231.26979751997558,-0.569436634852755,34.35206179110899
231.51979751997558,-0.5645498823899441,34.355029518170284
231.76979751997558,-0.5567866727238977,34.357793712019514
232.01979751997558,-0.5518004179784156,34.3608924846739
232.26979751997558,-0.5497729051064956,34.36234835202733
232.51979751997558,-0.5484422402313316,34.36181231460596
232.76979751997558,-0.5472074796854038,34.361994987721914
233.01979751997558,-0.5458626565160459,34.36332165612261
233.26979751997558,-0.5442685953012396,34.36302008430623
233.51979751997558,-0.5389262032228328,34.36542331713334
233.76979751997558,-0.530384541705323,34.37099979437669
234.01979751997558,-0.5243999978836154,34.37358204105746
234.26979751997558,-0.5222204647677247,34.374098880284855
234.51979751997558,-0.5212274189923051,34.37418809870081
234.76979751997558,-0.5203152087565833,34.37416791109212
235.01979751997558,-0.5195142729983478,34.37393651773531
235.26979751997558,-0.5188290487886413,34.374048423057225
235.51979751997558,-0.5187969382272818,34.37527159905983
235.76979751997558,-0.5128488763074827,34.37721103364459
236.01979751997558,-0.5021831550647949,34.38073333552552
236.26979751997558,-0.4948005302614246,34.38470331705179
236.51979751997558,-0.49358916843724854,34.38554215161705
236.76979751997558,-0.49293154178292564,34.38614265272403
237.01979751997558,-0.49194269209920743,34.38646845209999
237.26979751997558,-0.49109239568993024,34.38590585335311
237.51979751997558,-0.49007672054552925,34.385693249984705
237.76979751997558,-0.4873560951185117,34.38790923934583
238.01979751997558,-0.47703143053648517,34.39179331879026
238.26979751997558,-0.4687328341744494,34.39467661939218
238.51979751997558,-0.46804935193817143,34.39566425417479
238.76979751997558,-0.46694066861086886,34.396354240053554
239.01979751997558,-0.4656957308117937,34.39671781505686
239.26979751997558,-0.4649868510953903,34.39561963837706
239.51979751997558,-0.4625863622335947,34.39612748507258
239.76979751997558,-0.4548604808622148,34.40084584081121
240.01979751997558,-0.44268821415833376,34.40500731402934
240.26979751997558,-0.43746251949767323,34.407082376047505
240.51979751997558,-0.436606246365264,34.40773519800797
240.76979751997558,-0.43540124813750675,34.40807631164832
241.01979751997558,-0.434382964639091,34.40774823745269
241.26979751997558,-0.43292394466869666,34.40651082233857
241.51979751997558,-0.43071401548100746,34.41123666181494
241.76979751997558,-0.419479919323437,34.4166811938702
242.01979751997558,-0.40664440226275983,34.418515088036905
242.26979751997558,-0.4046475664313087,34.41908909357846
242.51979751997558,-0.40316400716676665,34.41959942393163
242.76979751997558,-0.4020995882893877,34.4201061131619
243.01979751997558,-0.40088164899073214,34.420243654193456
243.26979751997558,-0.4000663876744516,34.41933640042138
243.51979751997558,-0.39757325580817915,34.419456270706284
243.76979751997558,-0.38003726988444697,34.42709861436317
244.01979751997558,-0.3673940646614142,34.43169397789639
244.26979751997558,-0.3647450321240746,34.43159833302972
244.51979751997558,-0.3629856462048238,34.432201479698286
244.76979751997558,-0.3614470223228696,34.4328744343375
245.01979751997558,-0.36023636490550826,34.432564824759766
245.26979751997558,-0.3586943173096622,34.43241893581743
245.51979751997558,-0.35792176777186424,34.432551916726474
245.76979751997558,-0.3533888697746113,34.434318000071904
246.01979751997558,-0.3394284084184256,34.439650010267904
246.26979751997558,-0.3332598950951532,34.44262880431689
246.51979751997558,-0.3319718315144671,34.44339803309623
246.76979751997558,-0.33022826567657,34.444250100951784
247.01979751997558,-0.32930977160060104,34.44501757156378
247.26979751997558,-0.3274319920746989,34.44403117372868
247.51979751997558,-0.3259592092259868,34.44458842978824
247.76979751997558,-0.32542354480464897,34.44432688700614
248.01979751997558,-0.32294146125402484,34.445055792500916
248.26979751997558,-0.3150400643648396,34.453541012946246
248.51979751997558,-0.3054909208412852,34.45357659032822
248.76979751997558,-0.2997149235883895,34.45378732029682
249.01979751997558,-0.29733603400205283,34.45649182344604
249.26979751997558,-0.29518061493656644,34.456519740461964
