Depth,Temperature,Salinity
152.52436441920045,-1.4461019355029736,33.136885382535205
152.77436441920045,-1.4456341837442916,33.143511595148524
153.02436441920045,-1.4449809448330833,33.14976532247195
153.27436441920045,-1.4444946206484108,33.152724026058564
153.52436441920045,-1.4443886105952448,33.155778483292
153.77436441920045,-1.4445819646975686,33.164525033605976
154.02436441920045,-1.444633012818035,33.1697799420389
154.27436441920045,-1.4439980109230806,33.174541785393544
154.52436441920045,-1.4431686214614254,33.18051758839334
154.77436441920045,-1.4429270977882007,33.18401541015427
155.02436441920045,-1.4425384701224429,33.186794813244305
155.27436441920045,-1.4419417378126862,33.18994305587445
155.52436441920045,-1.4414323179384818,33.19311055340899
155.77436441920045,-1.4410962506465823,33.196241736253995
156.02436441920045,-1.4406607387368837,33.200332367794374
156.27436441920045,-1.4402070686358073,33.202994388510334
156.52436441920045,-1.4395178819007863,33.20565928923653
156.77436441920045,-1.4384600528509401,33.21070705486869
157.02436441920045,-1.4374625718765037,33.21660782491402
157.27436441920045,-1.436923641516443,33.220489598444026
157.52436441920045,-1.4360829610822787,33.22287679875853
157.77436441920045,-1.4337036229453803,33.227438888044
158.02436441920045,-1.4302398044240645,33.235233017550364
158.27436441920045,-1.4290330053745186,33.23960024695778
158.52436441920045,-1.4283423933432307,33.24487447149448
158.77436441920045,-1.426843582474685,33.25160527772817
159.02436441920045,-1.4252015753118217,33.256554467153016
159.27436441920045,-1.4236107892811476,33.262477469420325
159.52436441920045,-1.4215873452412808,33.26959607541493
159.77436441920045,-1.4197192757565744,33.27640657782742
160.02436441920045,-1.4183898243652409,33.283214585490136
160.27436441920045,-1.4169297398938903,33.29105572332359
160.52436441920045,-1.4165528164043255,33.292627743134354
160.77436441920045,-1.4152359353611714,33.29550462283536
161.02436441920045,-1.4129436314286312,33.304253258513214
161.27436441920045,-1.412747390414255,33.31190321321594
161.52436441920045,-1.413689126649096,33.31808113106228
161.77436441920045,-1.414342117568324,33.32242739667876
162.02436441920045,-1.4145537406697772,33.32635772256135
162.27436441920045,-1.4147320362899622,33.33137904371108
162.52436441920045,-1.4145883048027577,33.33589547193313
162.77436441920045,-1.4148070733635822,33.340785359813395
163.02436441920045,-1.4148154091038085,33.3463307974967
163.27436441920045,-1.4143686084050164,33.35117400178216
163.52436441920045,-1.414403886728154,33.35462099060548
163.77436441920045,-1.4133658446146162,33.36068808729407
164.02436441920045,-1.4121406037476287,33.367466727980805
164.27436441920045,-1.4117848165271933,33.370799993912634
164.52436441920045,-1.4115132253673097,33.37175021557902
164.77436441920045,-1.4101031687741523,33.37845795061823
165.02436441920045,-1.4080768899515819,33.38665985327388
165.27436441920045,-1.4063652411235312,33.39247607545184
165.52436441920045,-1.405087748774022,33.39644573164649
165.77436441920045,-1.4034631896354621,33.399703459707226
166.02436441920045,-1.4013619885592778,33.40806473272304
166.27436441920045,-1.3995017408645645,33.415784351185344
166.52436441920045,-1.3984588248261656,33.41816961189611
166.77436441920045,-1.397487130771583,33.421902151111105
167.02436441920045,-1.3945622457462221,33.428471948951405
167.27436441920045,-1.391257719699887,33.435823899357025
167.52436441920045,-1.3887966660226216,33.442296194630245
167.77436441920045,-1.3851826188628775,33.44812678992798
168.02436441920045,-1.3778318977187929,33.45423840729185
168.27436441920045,-1.3719622955504192,33.46142392233811
168.52436441920045,-1.369026360423922,33.46887475219328
168.77436441920045,-1.3669576338825802,33.47506169921737
169.02436441920045,-1.3662404735853206,33.47971954560755
169.27436441920045,-1.3658849124761967,33.484172390787954
169.52436441920045,-1.3638427730138565,33.488689779145304
169.77436441920045,-1.3601205452982879,33.49291866120374
170.02436441920045,-1.3571886065265053,33.49694925698446
170.27436441920045,-1.3557320415685536,33.50136492312951
170.52436441920045,-1.3535488328019558,33.5065989694457
170.77436441920045,-1.3508542162616977,33.51106441998857
171.02436441920045,-1.3493882595217128,33.51369227449043
171.27436441920045,-1.3481364391535857,33.517336644348106
171.52436441920045,-1.3473790313785465,33.52290049230112
171.77436441920045,-1.3468766522078444,33.526618843243014
172.02436441920045,-1.3459629944563527,33.527538114285726
172.27436441920045,-1.344211282712713,33.53116881214649
172.52436441920045,-1.3414142586250584,33.53966858926096
172.77436441920045,-1.339452487643169,33.5462720798486
173.02436441920045,-1.3384878286119506,33.550773185112405
173.27436441920045,-1.3368871048812527,33.558418517639424
173.52436441920045,-1.3344415607616316,33.56630066396091
173.77436441920045,-1.3313821233386454,33.57177939470503
174.02436441920045,-1.3274917475177557,33.57784256071153
174.27436441920045,-1.3232428268774112,33.58568673997173
174.52436441920045,-1.3195803414286327,33.591841466760116
174.77436441920045,-1.3147432968273354,33.60027010633083
175.02436441920045,-1.3088451685918863,33.610198738013956
175.27436441920045,-1.3034031353001116,33.62129711146833
175.52436441920045,-1.2991452804226087,33.632833608321874
175.77436441920045,-1.2948929539371565,33.638821290901284
176.02436441920045,-1.2909110989686963,33.6455183663665
176.27436441920045,-1.2879210700363548,33.65302007866241
176.52436441920045,-1.2851788419640113,33.65758559065839
176.77436441920045,-1.2806207163846814,33.66100870183515
177.02436441920045,-1.274475248331517,33.667285958228604
177.27436441920045,-1.2679746855543437,33.67577677422813
177.52436441920045,-1.2630580684881456,33.68356781744623
177.77436441920045,-1.2602641878080578,33.689273915542756
178.02436441920045,-1.2570680095090472,33.69455184910131
178.27436441920045,-1.2545584272086003,33.70080262998745
178.52436441920045,-1.251877477628019,33.70588287824321
178.77436441920045,-1.2484720068624486,33.7096886802842
179.02436441920045,-1.2466597069495526,33.71561966546135
179.27436441920045,-1.2458858862290383,33.71930270845423
179.52436441920045,-1.2415912470435306,33.72391097033626
179.77436441920045,-1.2352025231110433,33.731495212799075
180.02436441920045,-1.2317996125673227,33.73912762486891
180.27436441920045,-1.2276994541360222,33.746135198341676
180.52436441920045,-1.2226424241132532,33.753058505249506
180.77436441920045,-1.2175462426482777,33.759840274360236
181.02436441920045,-1.212830584008963,33.76600118765407
181.27436441920045,-1.208399114931298,33.77192136733436
181.52436441920045,-1.2035977346034652,33.77926194042732
181.77436441920045,-1.1988522858671977,33.78625299494583
182.02436441920045,-1.1937523306035047,33.79176301385921
182.27436441920045,-1.187767236973751,33.797807290857335
182.52436441920045,-1.1831143950535508,33.8062390883901
182.77436441920045,-1.1785325831911289,33.813896564552685
183.02436441920045,-1.1733909048907178,33.819714862196555
183.27436441920045,-1.1685812978917174,33.82533074512009
183.52436441920045,-1.1644315724536671,33.83180865439954
183.77436441920045,-1.1595446607295072,33.839003258618774
184.02436441920045,-1.154941992091338,33.843959725059435
184.27436441920045,-1.1511818756293881,33.848649842887376
184.52436441920045,-1.1475121653703344,33.856559018400844
184.77436441920045,-1.1445477425487236,33.861080556093356
185.02436441920045,-1.1411187880116087,33.86491325182646
185.27436441920045,-1.136804267308254,33.870938041367275
185.52436441920045,-1.1324230483433932,33.87665576190372
185.77436441920045,-1.1285535059539338,33.87870985180745
186.02436441920045,-1.1243235751178104,33.88440111964879
186.27436441920045,-1.120460429776124,33.89048642045011
186.52436441920045,-1.116581300894056,33.89451313047197
186.77436441920045,-1.1112534691136788,33.89963564972867
187.02436441920045,-1.1059005680289806,33.90362444921184
187.27436441920045,-1.100900332604334,33.91084397712974
187.52436441920045,-1.096479218430264,33.91835709962772
187.77436441920045,-1.0928130093584703,33.92252227972562
188.02436441920045,-1.0895523626464056,33.92819861164667
188.27436441920045,-1.0864074353317925,33.93171768568117
188.52436441920045,-1.082942140654478,33.93457214552104
188.77436441920045,-1.0791226508478808,33.93849836718906
189.02436441920045,-1.0750309892140264,33.9424350757215
189.27436441920045,-1.0698624755132615,33.94783731262712
189.52436441920045,-1.0634899297800906,33.955108346363815
189.77436441920045,-1.0582536615550036,33.96207464694622
190.02436441920045,-1.0549293114109852,33.96756016095827
190.27436441920045,-1.0505834501501905,33.973631900171554
190.52436441920045,-1.047629452406977,33.979086939184704
190.77436441920045,-1.0459072953904602,33.98443733584162
191.02436441920045,-1.0441621870728504,33.988524472838854
191.27436441920045,-1.0425523733246478,33.99014613396393
191.52436441920045,-1.0405887627452526,33.9949673938081
191.77436441920045,-1.031672663102472,34.00083723537577
192.02436441920045,-1.0201591231147171,34.00788724417046
192.27436441920045,-1.0139337877965973,34.016363142793146
192.52436441920045,-1.0096431704101339,34.022032952129145
192.77436441920045,-1.003305071984162,34.02855888120352
193.02436441920045,-0.9965433669167354,34.03667614093608
193.27436441920045,-0.9922346834684534,34.04330938035638
193.52436441920045,-0.9902799796010496,34.04628917263972
193.77436441920045,-0.9876277908074427,34.04891128128033
194.02436441920045,-0.980221271658092,34.05530869377571
194.27436441920045,-0.9699459595926284,34.06478927294263
194.52436441920045,-0.9618326549218167,34.07349560693782
194.77436441920045,-0.9570397458064713,34.07962425245519
195.02436441920045,-0.952209622084149,34.08544872730874
195.27436441920045,-0.9474364353725789,34.0917966460235
195.52436441920045,-0.9441901314576232,34.095588222445855
195.77436441920045,-0.9425648637078023,34.0959037736834
196.02436441920045,-0.9410871522912047,34.101101140429485
196.27436441920045,-0.9347597221832744,34.10689302107601
196.52436441920045,-0.9261671627331525,34.11208509346811
196.77436441920045,-0.9209283464689875,34.11776477755363
197.02436441920045,-0.9179829732332034,34.12113424051036
197.27436441920045,-0.9131595842234178,34.12546239699834
197.52436441920045,-0.9084240035267995,34.129080240874345
197.77436441920045,-0.9058445834255356,34.131148793522485
198.02436441920045,-0.9038818874008563,34.13403671751178
198.27436441920045,-0.9006359211270817,34.137747652509695
198.52436441920045,-0.8940800126405942,34.142320199481084
198.77436441920045,-0.8860775311466099,34.147906204266135
199.02436441920045,-0.8803475641775941,34.15310735451641
199.27436441920045,-0.8773772515827042,34.15581853156827
199.52436441920045,-0.8724028788323469,34.15841540122122
199.77436441920045,-0.8665086280261253,34.16236584400282
200.02436441920045,-0.8626411456406826,34.1657676724875
200.27436441920045,-0.8608107771349824,34.16711669759594
200.52436441920045,-0.8583296757005822,34.169575304675014
200.77436441920045,-0.8553077956664654,34.172126083108445
201.02436441920045,-0.8493260190107156,34.17705916755927
201.27436441920045,-0.8417161363655893,34.18315846213261
201.52436441920045,-0.8381978264371548,34.185003223339535
201.77436441920045,-0.8347745060738408,34.1887796616663
202.02436441920045,-0.8312258865741862,34.19149647272141
202.27436441920045,-0.8272251053535798,34.193706737022715
202.52436441920045,-0.8226893265106531,34.198492519274254
202.77436441920045,-0.8209567221257831,34.201015900723135
203.02436441920045,-0.8201254230422563,34.20258354288886
203.27436441920045,-0.8179845143620468,34.20532851690185
203.52436441920045,-0.8126756570228117,34.208796187759695
203.77436441920045,-0.8043520329931136,34.211624293692225
204.02436441920045,-0.7989802690769402,34.215887993585966
204.27436441920045,-0.7958408199665419,34.21970920069367
204.52436441920045,-0.7920522353149867,34.22144202216871
204.77436441920045,-0.7870833599296033,34.22350018110359
205.02436441920045,-0.7829928482794817,34.22917643386033
205.27436441920045,-0.7812566974914594,34.23104020287685
205.52436441920045,-0.7800052787057703,34.23206670186879
205.77436441920045,-0.7769967918672052,34.234212249148385
206.02436441920045,-0.7725648257877139,34.234115606077424
206.27436441920045,-0.76887733600059,34.23706982340803
206.52436441920045,-0.7652990365328173,34.24017061631145
206.77436441920045,-0.762013078176185,34.242358913489255
207.02436441920045,-0.7598001567213919,34.24482935006611
207.27436441920045,-0.7583396830589085,34.24650341922582
207.52436441920045,-0.7576289210550101,34.24726267527766
207.77436441920045,-0.7559327051045254,34.24732400834298
208.02436441920045,-0.7516340504977589,34.24872513970628
208.27436441920045,-0.7454302827661784,34.25310249158308
208.52436441920045,-0.7403479137563874,34.257548431113285
208.77436441920045,-0.7372493854543988,34.259516561267034
209.02436441920045,-0.7341513141016356,34.261111070349834
209.27436441920045,-0.7283654371010784,34.263893830145996
209.52436441920045,-0.7205121611495834,34.26584136942423
209.77436441920045,-0.7172547791254399,34.26915563228841
210.02436441920045,-0.7164195374153677,34.27110838888401
210.27436441920045,-0.7147940127934569,34.27129048940304
210.52436441920045,-0.7111782318071778,34.27297607027835
210.77436441920045,-0.7025783284107877,34.27631476270497
211.02436441920045,-0.695136798649279,34.281286126144934
211.27436441920045,-0.6915840159041156,34.284981892942724
211.52436441920045,-0.6903031244430201,34.285412833148946
211.77436441920045,-0.6871834960684099,34.2853797488258
212.02436441920045,-0.6751761471589973,34.28918926271823
212.27436441920045,-0.668805617209772,34.293998895786046
212.52436441920045,-0.6702076882145472,34.2961589117836
212.77436441920045,-0.6690798078011868,34.29623319676212
213.02436441920045,-0.6659601659077363,34.29742515800845
213.27436441920045,-0.6609687716756578,34.29806630093304
213.52436441920045,-0.6517445683887468,34.301043413269326
213.77436441920045,-0.6422000987029742,34.30624186060754
214.02436441920045,-0.6391612471132773,34.30854912317066
214.27436441920045,-0.6364873782335174,34.309014967181206
214.52436441920045,-0.6335724785500034,34.310716378529584
214.77436441920045,-0.6265426804366154,34.31286077079946
215.02436441920045,-0.6162447136535348,34.315007650607775
215.27436441920045,-0.6135889020279586,34.319989757867745
215.52436441920045,-0.6118958016832953,34.3221261823023
215.77436441920045,-0.6094383066533797,34.32233699806337
216.02436441920045,-0.6055333354306998,34.32338025920008
216.27436441920045,-0.5975920787829574,34.32501844955225
216.52436441920045,-0.588946528366184,34.327304030404164
216.77436441920045,-0.5849695246620851,34.33126753539627
217.02436441920045,-0.5835228178213988,34.33454018944199
217.27436441920045,-0.5812644154152579,34.33510143622435
217.52436441920045,-0.5797998089710581,34.33554443675885
217.77436441920045,-0.5736185947092712,34.33722100223692
218.02436441920045,-0.5677398404150904,34.339473655237896
218.27436441920045,-0.5658928313112183,34.3411523730664
218.52436441920045,-0.5645358216208394,34.34229232188653
218.77436441920045,-0.5622826934979203,34.34431640850957
219.02436441920045,-0.5611349370926145,34.346424597359984
219.27436441920045,-0.555625767256942,34.34776601307046
219.52436441920045,-0.5451943678085458,34.34919739713823
219.77436441920045,-0.5404855181571568,34.352162502629284
220.02436441920045,-0.537506434087709,34.35475826777656
220.27436441920045,-0.5349965698983281,34.35650057697624
220.52436441920045,-0.532948964699503,34.357596700007306
220.77436441920045,-0.5304426109431084,34.35835885832486
221.02436441920045,-0.5280239526551721,34.35970751088581
221.27436441920045,-0.5271018311448835,34.36168249101471
221.52436441920045,-0.5221314478647913,34.36340561098866
221.77436441920045,-0.5129185100122068,34.36533789219619
222.02436441920045,-0.5080134878283491,34.368485172041595
222.27436441920045,-0.5054651172769921,34.369928038282175
222.52436441920045,-0.5040053033046347,34.37079598688494
222.77436441920045,-0.4988556552315486,34.371367378322155
223.02436441920045,-0.4894547623089222,34.37231159891477
223.27436441920045,-0.4854837429316797,34.37658206686415
223.52436441920045,-0.48231806706980956,34.37844200592039
223.77436441920045,-0.47963891933144015,34.38051823232927
224.02436441920045,-0.47837322740897276,34.38335979125017
224.27436441920045,-0.47709718455161215,34.382391036097054
224.52436441920045,-0.4767062410772992,34.38304724882061
224.77436441920045,-0.4681699869933279,34.38434062832046
225.02436441920045,-0.45812571370249316,34.38665223822006
225.27436441920045,-0.45660902668552833,34.39040237313454
225.52436441920045,-0.4541779700227456,34.39137203733141
225.77436441920045,-0.45190017328509174,34.39182156970509
226.02436441920045,-0.45048338721425246,34.3926058768381
226.27436441920045,-0.44918552982665033,34.39292409577683
226.52436441920045,-0.4466334561048931,34.39335028889295
226.77436441920045,-0.4392458465204683,34.39633747583202
227.02436441920045,-0.4283497564044939,34.399198395384104
227.27436441920045,-0.42044392668215713,34.40273380058469
227.52436441920045,-0.41844270573265097,34.40674078397933
227.77436441920045,-0.41754640696240924,34.40677141217995
228.02436441920045,-0.4162197402354744,34.40654689808315
228.27436441920045,-0.4148577957344415,34.40627962203401
228.52436441920045,-0.40861333039663356,34.406354368112915
228.77436441920045,-0.3966879472352952,34.40805551442416
229.02436441920045,-0.3905779112456983,34.41082353264667
229.27436441920045,-0.38803831903068925,34.414674989061446
229.52436441920045,-0.3846990914463763,34.415997013957394
229.77436441920045,-0.3795083759924734,34.4156733060565
230.02436441920045,-0.3723150506336115,34.4186930905925
230.27436441920045,-0.3609443869211967,34.42238108277576
230.52436441920045,-0.3550516898541084,34.42518943270624
230.77436441920045,-0.3534186516611435,34.42633889402619
231.02436441920045,-0.34975282202167174,34.42667523220719
231.27436441920045,-0.34713167174319803,34.42843555372615
231.52436441920045,-0.34496247367623045,34.429675259685716
231.77436441920045,-0.3433191448293943,34.43022492823407
232.02436441920045,-0.3419548900700818,34.430340413436674
232.27436441920045,-0.3400015363833925,34.43037517490873
232.52436441920045,-0.3368471268109873,34.432468438046286
232.77436441920045,-0.3267095341889785,34.434727019848715
233.02436441920045,-0.3171780258420768,34.43724099980786
233.27436441920045,-0.31485790550653026,34.44031504786544
233.52436441920045,-0.3124119136494331,34.44204757281078
233.77436441920045,-0.31060126854441406,34.44318713512873
234.02436441920045,-0.3087535556190381,34.443302894805555
234.27436441920045,-0.30782155821420726,34.443074658044644
234.52436441920045,-0.30613869543488675,34.443511371241726
234.77436441920045,-0.2959749335797173,34.44336442110658
235.02436441920045,-0.2908947632405237,34.44456782627234
235.27436441920045,-0.28926763900948727,34.44797622112726
235.52436441920045,-0.2831239538545393,34.451687208438294
235.77436441920045,-0.2755667007560893,34.45368020063007
236.02436441920045,-0.2723373621958358,34.45600199126058
236.27436441920045,-0.27125643368774777,34.45721438426061
236.52436441920045,-0.27000952751379975,34.45743324010628
236.77436441920045,-0.2688427858083849,34.458005267488986
237.02436441920045,-0.2678090462555717,34.458068825751724
237.27436441920045,-0.2668396858568342,34.457794273561554
237.52436441920045,-0.2661144076277906,34.457724472345255
237.77436441920045,-0.26595083490542504,34.45801710063082
238.02436441920045,-0.26641283335347515,34.45842382424856
238.27436441920045,-0.2665408896045825,34.458970540973574
238.52436441920045,-0.2629783929477811,34.46024352242727
238.77436441920045,-0.253559372969174,34.461444894095344
239.02436441920045,-0.24344113937832412,34.463344689248906
239.27436441920045,-0.24174467998339252,34.46838572376106
