Depth,Temperature,Salinity
152.85718101617837,-1.4500555026920983,33.14396803823164
153.10718101617837,-1.4500879087187284,33.14595947134588
153.35718101617837,-1.4495886932607598,33.14964363984867
153.60718101617837,-1.4490157781354671,33.15588901468204
153.85718101617837,-1.4489992356636447,33.16273964262556
154.10718101617837,-1.4497163072249801,33.16740402258362
154.35718101617837,-1.4499968929660438,33.17190671953379
154.60718101617837,-1.4496120568838027,33.1750539745853
154.85718101617837,-1.4486820650274268,33.178321501079516
155.10718101617837,-1.4468940752778257,33.18402780343295
155.35718101617837,-1.4439751264329221,33.19098143525178
155.60718101617837,-1.4416233776124006,33.1975226440603
155.85718101617837,-1.4402368775811951,33.202626064846676
156.10718101617837,-1.4394301007760433,33.207503496128645
156.35718101617837,-1.4389611020417377,33.213066440358006
156.60718101617837,-1.4384810886663566,33.2169841710117
156.85718101617837,-1.436523923816308,33.222600950985395
157.10718101617837,-1.4328861174188996,33.22947601578263
157.35718101617837,-1.4286287690789596,33.23516834549307
157.60718101617837,-1.424833768746589,33.23983213522121
157.85718101617837,-1.4216097155443703,33.24450381100262
158.10718101617837,-1.417850025786057,33.247399945594985
158.35718101617837,-1.4142867195861952,33.2529101267525
158.60718101617837,-1.4129161303049704,33.263197683977104
158.85718101617837,-1.4138859500287932,33.269330969644784
159.10718101617837,-1.4145979667092734,33.27313561454506
159.35718101617837,-1.41527468466792,33.27625386683133
159.60718101617837,-1.416936464085978,33.27931005607245
159.85718101617837,-1.4189138951428322,33.28364679264675
160.10718101617837,-1.4193287167321706,33.29039121009462
160.35718101617837,-1.4165921658857625,33.299153329160006
160.60718101617837,-1.4135322942182684,33.30709233828655
160.85718101617837,-1.4125536630423283,33.31366967225379
161.10718101617837,-1.4117880146593136,33.32107498202385
161.35718101617837,-1.410888712159015,33.325817014026576
161.60718101617837,-1.4097394990048133,33.33267397654031
161.85718101617837,-1.4064973671467493,33.342245101004046
162.10718101617837,-1.401766877511123,33.350329821105646
162.35718101617837,-1.4006078854393398,33.356418351589156
162.60718101617837,-1.4003499401252084,33.360170024039526
162.85718101617837,-1.399835051580528,33.36290289513456
163.10718101617837,-1.3975209403203115,33.36721164726194
163.35718101617837,-1.3916845883065496,33.374537036117566
163.60718101617837,-1.3854808048864677,33.382684117714355
163.85718101617837,-1.3817832858174395,33.38852300817157
164.10718101617837,-1.3795671232283504,33.393295320473236
164.35718101617837,-1.377365746299091,33.39846715541074
164.60718101617837,-1.3755297331599299,33.40310685419569
164.85718101617837,-1.372026201490773,33.410240052126625
165.10718101617837,-1.3682585975265105,33.41824952480563
165.35718101617837,-1.3657510623582665,33.425058008232384
165.60718101617837,-1.3640674077822612,33.430042291535486
165.85718101617837,-1.362082229731063,33.43328941554805
166.10718101617837,-1.359862689300565,33.43857084224563
166.35718101617837,-1.3567466988379344,33.44662254417809
166.60718101617837,-1.3528469886662196,33.45480320979787
166.85718101617837,-1.349459104553371,33.461083462165355
167.10718101617837,-1.3470929280943986,33.4669298611479
167.35718101617837,-1.3450657651320808,33.47103892832379
167.60718101617837,-1.3431650571397966,33.47620030106331
167.85718101617837,-1.3409137426819309,33.48408684844291
168.10718101617837,-1.3376233095033756,33.49126364736375
168.35718101617837,-1.3346673145293495,33.49652595839243
168.60718101617837,-1.3321747278412874,33.50127085733286
168.85718101617837,-1.3295230803970888,33.50643131076985
169.10718101617837,-1.3260703772237856,33.51334512624384
169.35718101617837,-1.3218106496971838,33.52406658452172
169.60718101617837,-1.3187711856813842,33.532118535760524
169.85718101617837,-1.3163642851024864,33.538634583740205
170.10718101617837,-1.3137659326491258,33.54516800894815
170.35718101617837,-1.3113685182125638,33.549863477309366
170.60718101617837,-1.307577049692577,33.55912121471364
170.85718101617837,-1.3031587920482697,33.57010927347477
171.10718101617837,-1.299527054357039,33.57927921898553
171.35718101617837,-1.2968824238855383,33.58682146970021
171.60718101617837,-1.2942473185054062,33.59368004584438
171.85718101617837,-1.2914100286945651,33.59969255052147
172.10718101617837,-1.2876351502224435,33.608985988755514
172.35718101617837,-1.283347744477783,33.62030423233185
172.60718101617837,-1.2798791068771742,33.62894989595065
172.85718101617837,-1.2772755744795674,33.63670489514264
173.10718101617837,-1.2749794755379422,33.64107576649287
173.35718101617837,-1.271506468289123,33.64688309426409
173.60718101617837,-1.267082965638345,33.65623770207296
173.85718101617837,-1.2633497754421181,33.665301284323306
174.10718101617837,-1.2607036980513213,33.67173269584342
174.35718101617837,-1.2581171770721715,33.67695946111675
174.60718101617837,-1.255329124541477,33.68107497323044
174.85718101617837,-1.2518877749430601,33.68632284859966
175.10718101617837,-1.2472213398056469,33.69548484055661
175.35718101617837,-1.2421916816251377,33.70560046180799
175.60718101617837,-1.2385770980423625,33.712350594277865
175.85718101617837,-1.2354505962182378,33.71762549612779
176.10718101617837,-1.2320470616204182,33.72367192887376
176.35718101617837,-1.2290113984662696,33.729711554336504
176.60718101617837,-1.224287902211159,33.73884433080155
176.85718101617837,-1.2192441896308062,33.74815996528787
177.10718101617837,-1.2155210219603039,33.75509920141317
177.35718101617837,-1.2127013738145918,33.759559443139466
177.60718101617837,-1.2088689983933085,33.763316678033135
177.85718101617837,-1.2029756961767573,33.77139485210031
178.10718101617837,-1.196353940997242,33.781677771186565
178.35718101617837,-1.191181823682727,33.790677672078736
178.60718101617837,-1.187906150229885,33.7970746304557
178.85718101617837,-1.1844198780877986,33.80142393356903
179.10718101617837,-1.179685823730043,33.80730273344064
179.35718101617837,-1.1735806118583452,33.81485369756507
179.60718101617837,-1.1676300287338892,33.82214133210169
179.85718101617837,-1.1633463774024786,33.82823250208702
180.10718101617837,-1.1592359362508713,33.8338760795651
180.35718101617837,-1.1564923174429331,33.8381696495766
180.60718101617837,-1.1519004764482548,33.843075719078165
180.85718101617837,-1.1436645859941723,33.85127952334855
181.10718101617837,-1.1373237934967384,33.86127833942143
181.35718101617837,-1.1323109824410025,33.869107140226575
181.60718101617837,-1.127908171149199,33.874901935157034
181.85718101617837,-1.1249068409901009,33.87918002316045
182.10718101617837,-1.1224889223836263,33.88220963640838
182.35718101617837,-1.117346294062081,33.88670636409958
182.60718101617837,-1.1105523997516358,33.89533544841693
182.85718101617837,-1.1051726310426853,33.90347363246695
183.10718101617837,-1.1023967529450673,33.90692083665787
183.35718101617837,-1.1003128969290261,33.90810426961711
183.60718101617837,-1.0966169172868014,33.91217657820991
183.85718101617837,-1.0927324171647288,33.91674765552487
184.10718101617837,-1.0884007121192805,33.92171978964359
184.35718101617837,-1.084092100266898,33.92748225003871
184.60718101617837,-1.080578633478169,33.93324665208786
184.85718101617837,-1.0774745425183505,33.93779707689485
185.10718101617837,-1.0749737884413157,33.94117150789259
185.35718101617837,-1.0720616162120953,33.94460724330759
185.60718101617837,-1.067692573632199,33.94927082496914
185.85718101617837,-1.062102089550665,33.9555222268431
186.10718101617837,-1.0568633681397221,33.96272611842327
186.35718101617837,-1.0530626267604652,33.96859282007974
186.60718101617837,-1.0502050077252783,33.97259560086049
186.85718101617837,-1.0475524729317183,33.97559957852305
187.10718101617837,-1.0451749075773946,33.97827525234335
187.35718101617837,-1.0420133635686588,33.98181517154978
187.60718101617837,-1.0372857603096761,33.98690960860307
187.85718101617837,-1.032550282024813,33.99259867693987
188.10718101617837,-1.0297483657651356,33.99710057246664
188.35718101617837,-1.0276511590895792,33.999988310091744
188.60718101617837,-1.0257150469504344,34.00217552511156
188.85718101617837,-1.0219077688089793,34.00524872837737
189.10718101617837,-1.0160717642701933,34.010287205365515
189.35718101617837,-1.0107243015312055,34.01639893199162
189.60718101617837,-1.0071946377461984,34.02099900960343
189.85718101617837,-1.0043406820082192,34.02453992714751
190.10718101617837,-1.0014574419367823,34.02755218334344
190.35718101617837,-0.9976079383904118,34.031607116030564
190.60718101617837,-0.991355265748961,34.038707422606564
190.85718101617837,-0.9830421365548276,34.047521648545384
191.10718101617837,-0.976683923373307,34.05471674230418
191.35718101617837,-0.9724733762571439,34.0599790130688
191.60718101617837,-0.9679768876580017,34.06422905957116
191.85718101617837,-0.9619707363643286,34.06759008094773
192.10718101617837,-0.9533811814798643,34.07293253468264
192.35718101617837,-0.9450081792645877,34.08048392566073
192.60718101617837,-0.9392734915583866,34.08698200953435
192.85718101617837,-0.9357693645893354,34.09031410841324
193.10718101617837,-0.9327079202282663,34.093004697151386
193.35718101617837,-0.9296678281699816,34.09616451297077
193.60718101617837,-0.9249948673528416,34.099894754640864
193.85718101617837,-0.9196337983097335,34.10506879268209
194.10718101617837,-0.9161891886196887,34.11117232849989
194.35718101617837,-0.9142317344285902,34.11445727620323
194.60718101617837,-0.9131524895340104,34.1163985856196
194.85718101617837,-0.9117263342016051,34.11875646393221
195.10718101617837,-0.909483580614255,34.12187719769046
195.35718101617837,-0.9068179620021002,34.12513230520214
195.60718101617837,-0.9034373918542741,34.12806216058844
195.85718101617837,-0.899728610491947,34.1322554045908
196.10718101617837,-0.8967207398928169,34.135405666468344
196.35718101617837,-0.8935321980576745,34.13694555685415
196.60718101617837,-0.8874487081247765,34.14068974305436
196.85718101617837,-0.87901675137949,34.14611369757469
197.10718101617837,-0.8735510859991142,34.15069139055526
197.35718101617837,-0.8708459080377186,34.15504915942
197.60718101617837,-0.8685131978181605,34.15868925577979
197.85718101617837,-0.8665750625747798,34.15970400543268
198.10718101617837,-0.8620782149654191,34.16441093985393
198.35718101617837,-0.8581805349998468,34.16924509563026
198.60718101617837,-0.8555151922180859,34.173133925251406
198.85718101617837,-0.8523278103423289,34.177349071755955
199.10718101617837,-0.8492232718461098,34.17977782670483
199.35718101617837,-0.8469070528341369,34.181537800708526
199.60718101617837,-0.844781814315005,34.185700278107404
199.85718101617837,-0.8424926991292607,34.1902753357391
200.10718101617837,-0.8392423008758452,34.192577180126285
200.35718101617837,-0.833648631758257,34.195599349113294
200.60718101617837,-0.8282471298137429,34.198681885038035
200.85718101617837,-0.8221374953870239,34.20169930686397
201.10718101617837,-0.8131890862711175,34.205973283486564
201.35718101617837,-0.8030622625865125,34.211238726937516
201.60718101617837,-0.7969469418417228,34.21469790434955
201.85718101617837,-0.7919300104285548,34.219949283046276
202.10718101617837,-0.7875677021856362,34.22318532991257
202.35718101617837,-0.7821194477636582,34.22438426965817
202.60718101617837,-0.7731964495647244,34.229525758078005
202.85718101617837,-0.7663149833288464,34.23508412430031
203.10718101617837,-0.7633139841096874,34.23656480678414
203.35718101617837,-0.7596063640173042,34.23808971597224
203.60718101617837,-0.7534497211319768,34.242654779143244
203.85718101617837,-0.7487358753404866,34.245985695666064
204.10718101617837,-0.7442783972399405,34.247641928321954
204.35718101617837,-0.739714228506834,34.25079516433865
204.60718101617837,-0.7353379823652079,34.25469521549936
204.85718101617837,-0.7320698470200959,34.25776034314347
205.10718101617837,-0.730912165623193,34.26106233097059
205.35718101617837,-0.7305291963767122,34.26222185060588
205.60718101617837,-0.7289049077135963,34.26246513830414
205.85718101617837,-0.723450548568139,34.26533744490911
206.10718101617837,-0.7163749345765071,34.27026195136959
206.35718101617837,-0.714314014748762,34.272089983023406
206.60718101617837,-0.7128906033328858,34.27329441707825
206.85718101617837,-0.7114020725727069,34.273115495444216
207.10718101617837,-0.7066839451842902,34.27484703625841
207.35718101617837,-0.6976196457585666,34.280705560161906
207.60718101617837,-0.6920323392947063,34.28411319701875
207.85718101617837,-0.6893331194613602,34.28681742022222
208.10718101617837,-0.6876763187237208,34.288135906878324
208.35718101617837,-0.6864699945449295,34.28820579636266
208.60718101617837,-0.6856546625624088,34.28852366092398
208.85718101617837,-0.6848644904153058,34.28806693226588
209.10718101617837,-0.6842109468286024,34.28996905994692
209.35718101617837,-0.6810825894807937,34.29252230588328
209.60718101617837,-0.6745825302927461,34.294824659664044
209.85718101617837,-0.6684130969144992,34.29873121292927
210.10718101617837,-0.6664341464841765,34.30100861659996
210.35718101617837,-0.6662168227333333,34.302026369179956
210.60718101617837,-0.6654593649340759,34.302401823031666
210.85718101617837,-0.6650661437476676,34.30226723611143
211.10718101617837,-0.6633710993698743,34.303314627837146
211.35718101617837,-0.6501755674674843,34.30870862054482
211.60718101617837,-0.641755339553382,34.313431910384516
211.85718101617837,-0.6414173414765886,34.315177342748484
212.10718101617837,-0.639952752478179,34.31551745162602
212.35718101617837,-0.6385325404898303,34.31504383070845
212.60718101617837,-0.6387478166290974,34.31551800774202
212.85718101617837,-0.6311030904871768,34.319228697868056
213.10718101617837,-0.6207198922491933,34.32386147504639
213.35718101617837,-0.6187658143653892,34.32579906003475
213.60718101617837,-0.6177381290082776,34.32651837488383
213.85718101617837,-0.6168605561195702,34.32694628119374
214.10718101617837,-0.6157672825331222,34.32713703918128
214.35718101617837,-0.6148693819519878,34.327102031455574
214.60718101617837,-0.61222375437052,34.32781195808553
214.85718101617837,-0.602946471041394,34.330834478292346
215.10718101617837,-0.5969368206136906,34.33488243086221
215.35718101617837,-0.5941906398954317,34.33671836932699
215.60718101617837,-0.5899530975949749,34.33665204347312
215.85718101617837,-0.5826176786506082,34.33907306122557
216.10718101617837,-0.5739528109589932,34.34573447979749
216.35718101617837,-0.5705570713639704,34.34857768688937
216.60718101617837,-0.5698670206388475,34.3485366348905
216.85718101617837,-0.5681971555476032,34.349212166033894
217.10718101617837,-0.5669758309616472,34.34949616336571
217.35718101617837,-0.5658147068260188,34.34904713571339
217.60718101617837,-0.5614416303107317,34.351667057025345
217.85718101617837,-0.5529805995033326,34.354405106004045
218.10718101617837,-0.5443430989583892,34.355521080929876
218.35718101617837,-0.5401480200351279,34.35916660004619
218.60718101617837,-0.5380633034849255,34.36135611822328
218.85718101617837,-0.5368727726508845,34.3617733009211
219.10718101617837,-0.5362305414187724,34.361908053444594
219.35718101617837,-0.5349710416806029,34.36214006517268
219.60718101617837,-0.5304484565245869,34.362819383196246
219.85718101617837,-0.520846620852257,34.367292485713456
220.10718101617837,-0.5153860296600491,34.371305182331774
220.35718101617837,-0.5152214477320715,34.3725012348322
220.60718101617837,-0.5142495559606718,34.37258699153591
220.85718101617837,-0.5129085692754904,34.372198159215635
221.10718101617837,-0.5120781622345753,34.37181578686797
221.35718101617837,-0.5030117699454515,34.375386245932205
221.60718101617837,-0.4921386297241489,34.38135306056254
221.85718101617837,-0.4923808231634047,34.384027037242106
222.10718101617837,-0.49164496110722283,34.3844786471451
222.35718101617837,-0.49052563955568423,34.38438291008098
222.60718101617837,-0.4893418063695288,34.38399103624001
222.85718101617837,-0.4887566440775941,34.383507664327475
223.10718101617837,-0.48798723956672746,34.384440991947585
223.35718101617837,-0.47881953692991414,34.388166780425
223.60718101617837,-0.4711652870348286,34.39085657662018
223.85718101617837,-0.46755886869928526,34.39246379987012
224.10718101617837,-0.4650645721791903,34.394257226159255
224.35718101617837,-0.4639527394172281,34.3951719396583
224.60718101617837,-0.46288824173700627,34.395337880308055
224.85718101617837,-0.4635446371496823,34.39548762524655
225.10718101617837,-0.45776086912759173,34.39747136499738
225.35718101617837,-0.4451245488607507,34.40162270798794
225.60718101617837,-0.44035130000955924,34.40532308639624
225.85718101617837,-0.4388973028965318,34.406877849917656
226.10718101617837,-0.43779371417554414,34.40744033587837
226.35718101617837,-0.43789783116865416,34.40774916304847
226.60718101617837,-0.436066479702851,34.40842793649301
226.85718101617837,-0.4261023513917113,34.41110068754333
227.10718101617837,-0.41674543137368153,34.415184138384966
227.35718101617837,-0.4133357350442959,34.417920135157445
227.60718101617837,-0.4131355312835556,34.41869414428219
227.85718101617837,-0.4122437125694735,34.41871400870328
228.10718101617837,-0.4111289426560682,34.41833370135887
228.35718101617837,-0.4080929466470688,34.41802920227046
228.60718101617837,-0.40400818589868737,34.417957396060224
228.85718101617837,-0.3989604215527249,34.41971196578783
229.10718101617837,-0.39263314042024944,34.423706729528355
229.35718101617837,-0.38687576333406665,34.42687821697563
229.60718101617837,-0.3828163030516194,34.42835387013015
229.85718101617837,-0.3796985568305027,34.42896949298336
230.10718101617837,-0.37643146751886913,34.43008162437021
230.35718101617837,-0.3732929129976811,34.431454696567165
230.60718101617837,-0.37142214886948594,34.431268563892836
230.85718101617837,-0.36881291630735474,34.43101865937183
231.10718101617837,-0.3605524572515685,34.43089809977246
231.35718101617837,-0.34868989966535363,34.43339099161972
231.60718101617837,-0.34029571298878625,34.43926015081341
231.85718101617837,-0.3367271264404459,34.44218175906333
232.10718101617837,-0.3341335552981526,34.442005180003626
232.35718101617837,-0.32981106904967883,34.44225654939915
232.60718101617837,-0.3245447854581651,34.443468818245606
232.85718101617837,-0.32029177572452616,34.44404881887332
233.10718101617837,-0.3167775172804548,34.44574313765197
233.35718101617837,-0.3146298971556711,34.44606990684501
233.60718101617837,-0.3111421915543359,34.44673262027379
233.85718101617837,-0.3047184410813786,34.44982357124386
234.10718101617837,-0.29861506091327933,34.45332181242421
234.35718101617837,-0.2966812371212115,34.454786015639215
234.60718101617837,-0.2962351588620424,34.45508152890488
234.85718101617837,-0.29539694781647896,34.455143108895456
235.10718101617837,-0.29484021084815487,34.455133091325585
235.35718101617837,-0.293849154312027,34.45506111945187
235.60718101617837,-0.28783288442398564,34.45481104601359
235.85718101617837,-0.28016975658202325,34.45560871030355
236.10718101617837,-0.2751534164013453,34.45709507523545
236.35718101617837,-0.272496720625031,34.4579990435383
236.60718101617837,-0.2677486790934406,34.458593241235214
236.85718101617837,-0.25738959788462573,34.460722117698104
237.10718101617837,-0.24660988174782228,34.465952850477535
237.35718101617837,-0.23891088189013135,34.471393357855746
237.60718101617837,-0.234232527287158,34.47399021230961
237.85718101617837,-0.2322439229459682,34.47508915523354
238.10718101617837,-0.23043523802007365,34.47535121811329
238.35718101617837,-0.22862396490439804,34.47528541874365
238.60718101617837,-0.22728572679349662,34.47527757838262
238.85718101617837,-0.22634889940734698,34.475303821969305
239.10718101617837,-0.2258133567402623,34.47529875911094
239.35718101617837,-0.22609080740888857,34.4760250318467
239.60718101617837,-0.22284059840589787,34.47547742193691
239.85718101617837,-0.21295914687255238,34.47723831344326
