Depth,Temperature,Salinity
193.30480816160042,-1.5418494996494114,33.103514772787925
193.55480816160042,-1.5416127193638336,33.10593783041258
193.80480816160042,-1.540066435577771,33.10806224312852
194.05480816160042,-1.5372793207236926,33.11013615090522
194.30480816160042,-1.5345343916893708,33.11328138075602
194.55480816160042,-1.5333489934671636,33.11765374669136
194.80480816160042,-1.5334527125601098,33.12120508833199
195.05480816160042,-1.5334888104758388,33.1238205328702
195.30480816160042,-1.5340257261421628,33.126611240531055
195.55480816160042,-1.5342409320269477,33.12914786171323
195.80480816160042,-1.5328024870880317,33.131076208656474
196.05480816160042,-1.5300245313971579,33.13382189884729
196.30480816160042,-1.526559128204287,33.137883432719335
196.55480816160042,-1.52407833917049,33.14195929595457
196.80480816160042,-1.523175011873807,33.14556814212706
197.05480816160042,-1.5230386068201682,33.14844677401461
197.30480816160042,-1.522867764816694,33.15024523493716
197.55480816160042,-1.5230854397056752,33.15372442342125
197.80480816160042,-1.5222997045301605,33.15688777266773
198.05480816160042,-1.5206737172747884,33.1589162945656
198.30480816160042,-1.5193302692945505,33.161474699589704
198.55480816160042,-1.5171005065447047,33.16434477363124
198.80480816160042,-1.514735951217516,33.167526559744196
199.05480816160042,-1.5123964614591026,33.17054442833161
199.30480816160042,-1.5100453527453683,33.173609539051256
199.55480816160042,-1.5081295916868809,33.1776898025258
199.80480816160042,-1.506489919447333,33.182171156652764
200.05480816160042,-1.5047616131250061,33.18621784966497
200.30480816160042,-1.5028921932482846,33.18946294768446
200.55480816160042,-1.500808312879157,33.192708278113486
200.80480816160042,-1.4982594186358797,33.19734585021403
201.05480816160042,-1.496125052308107,33.20210877396558
201.30480816160042,-1.4941510519913312,33.20610565088385
201.55480816160042,-1.4924437715863448,33.209581803131215
201.80480816160042,-1.4908316373791954,33.2130981833384
202.05480816160042,-1.488431263983903,33.21719279221445
202.30480816160042,-1.4868769747942974,33.22253039410112
202.55480816160042,-1.486078652990642,33.226442720819726
202.80480816160042,-1.4849387940061523,33.229722117615566
203.05480816160042,-1.483959819720355,33.23432213235144
203.30480816160042,-1.4837020463992159,33.23926112665154
203.55480816160042,-1.4836770451309984,33.24261863046467
203.80480816160042,-1.4867645657793123,33.24742939977601
204.05480816160042,-1.4916240575878288,33.25263749593412
204.30480816160042,-1.4966167191892976,33.2573024270502
204.55480816160042,-1.500676377069095,33.26118696115736
204.80480816160042,-1.5022133983127781,33.26299182407704
205.05480816160042,-1.5030432739033148,33.264701861984655
205.30480816160042,-1.5034790571987444,33.267921283077094
205.55480816160042,-1.50259340952928,33.27202492908766
205.80480816160042,-1.4997514592075674,33.275010695378874
206.05480816160042,-1.4951712588765274,33.27666141820595
206.30480816160042,-1.4901514460823948,33.28070454817662
206.55480816160042,-1.485027353231603,33.28551939159766
206.80480816160042,-1.4802904458728425,33.29097869242365
207.05480816160042,-1.476546719497381,33.297086032333205
207.30480816160042,-1.4736487218915393,33.30107125404808
207.55480816160042,-1.4709105125218647,33.30468058857485
207.80480816160042,-1.4667794416920026,33.309691305228654
208.05480816160042,-1.4625515080332592,33.314521749527074
208.30480816160042,-1.459230063976155,33.31869064335969
208.55480816160042,-1.4563110854046901,33.32361571978375
208.80480816160042,-1.4543540873138108,33.32844058178911
209.05480816160042,-1.4516135750154175,33.33426081577382
209.30480816160042,-1.44912164200576,33.339505449901175
209.55480816160042,-1.4467509575408164,33.34302731367245
209.80480816160042,-1.4421037187948458,33.34728329063809
210.05480816160042,-1.4391092031301678,33.35331486117642
210.30480816160042,-1.4368126830696788,33.356078454947124
210.55480816160042,-1.441743666593303,33.36181847460871
210.80480816160042,-1.4524232995178525,33.371298022839404
211.05480816160042,-1.453510080410712,33.37378452469772
211.30480816160042,-1.4458208197671858,33.375933116868666
211.55480816160042,-1.441055813746087,33.37878181625607
211.80480816160042,-1.4367097187881854,33.38309952160376
212.05480816160042,-1.4328408263854786,33.388722687286965
212.30480816160042,-1.4318069767537258,33.393848500587
212.55480816160042,-1.4317447627534603,33.39851678451152
212.80480816160042,-1.4339878150763152,33.40543311658623
213.05480816160042,-1.4231608001284388,33.409768744354594
213.30480816160042,-1.4108755070477248,33.41286322178873
213.55480816160042,-1.4057056145774038,33.41908825232635
213.80480816160042,-1.4016288939333243,33.4274305031635
214.05480816160042,-1.399693698122375,33.43266161681716
214.30480816160042,-1.3989179106004503,33.43860154834676
214.55480816160042,-1.3991663542704347,33.44325630372216
214.80480816160042,-1.399710947983988,33.44699003327785
215.05480816160042,-1.3995182879417085,33.452723124675344
215.30480816160042,-1.3988229505109744,33.459053390354875
215.55480816160042,-1.397837227077182,33.46461835321274
215.80480816160042,-1.397323928442492,33.46855259558648
216.05480816160042,-1.3967553552394407,33.472035393196684
216.30480816160042,-1.3953671242467716,33.476179176803356
216.55480816160042,-1.3941252222493057,33.47952218238905
216.80480816160042,-1.3925703167198564,33.48275688244784
217.05480816160042,-1.3903588182711646,33.485518574584304
217.30480816160042,-1.3872425473135905,33.48831753301391
217.55480816160042,-1.3829355734740512,33.4929959940447
217.80480816160042,-1.377711144431766,33.49892488442376
218.05480816160042,-1.3714770174503375,33.506491526244034
218.30480816160042,-1.36630075704172,33.51499462361278
218.55480816160042,-1.3632394304029058,33.52208682984882
218.80480816160042,-1.3597871318613393,33.52688666743135
219.05480816160042,-1.3561282855569254,33.533123128028066
219.30480816160042,-1.3526461577278024,33.539971049697705
219.55480816160042,-1.349786897044577,33.54704494301671
219.80480816160042,-1.3474565277494834,33.554246035376565
220.05480816160042,-1.3449680181129713,33.56038731983477
220.30480816160042,-1.3421082556410604,33.565033074963665
220.55480816160042,-1.3392852439353427,33.569164625568185
220.80480816160042,-1.3353889176512388,33.5731628611982
221.05480816160042,-1.3318310251213692,33.57737608582187
221.30480816160042,-1.3293130456032434,33.58205785104143
221.55480816160042,-1.3267712668514788,33.58744538259215
221.80480816160042,-1.3252952785639398,33.59416373595406
222.05480816160042,-1.3241944375402004,33.601773317027494
222.30480816160042,-1.32274674325583,33.608123414379314
222.55480816160042,-1.321164155231956,33.61256250131113
222.80480816160042,-1.319592458686819,33.61699871041336
223.05480816160042,-1.316226604469097,33.62078831552536
223.30480816160042,-1.312671058370345,33.626962417784064
223.55480816160042,-1.3104918743329619,33.633903862129344
223.80480816160042,-1.3086271580597346,33.63788609417175
224.05480816160042,-1.3053669729832538,33.64175573640369
224.30480816160042,-1.3018724816850784,33.64722938733948
224.55480816160042,-1.2980840118747847,33.653068136679984
224.80480816160042,-1.2943714547185943,33.65777872944022
225.05480816160042,-1.2903314219829187,33.662955476106475
225.30480816160042,-1.285945728619171,33.669081179190286
225.55480816160042,-1.283146762280327,33.6729796938457
225.80480816160042,-1.2808203168454877,33.677264201690605
226.05480816160042,-1.277631064879324,33.68198639637675
226.30480816160042,-1.2752058342539792,33.686965665324436
226.55480816160042,-1.273512070813328,33.69184741888083
226.80480816160042,-1.2705957039842644,33.69616386188296
227.05480816160042,-1.268309614887895,33.70100553332967
227.30480816160042,-1.2652218879980641,33.70657353233897
227.55480816160042,-1.2618392621407581,33.71302466828541
227.80480816160042,-1.2594172389543903,33.72008279601867
228.05480816160042,-1.2568281587354049,33.72657269758804
228.30480816160042,-1.2540317130277336,33.73212240851829
228.55480816160042,-1.2510346031193047,33.73764444591997
228.80480816160042,-1.248243435665544,33.743386812952274
229.05480816160042,-1.245773502466357,33.74872125306744
229.30480816160042,-1.2425828935803747,33.75441787613398
229.55480816160042,-1.2382020261380915,33.762699467128186
229.80480816160042,-1.235311488494376,33.76769891633418
230.05480816160042,-1.2313399433116743,33.77358985850154
230.30480816160042,-1.2262396036407561,33.7827387121321
230.55480816160042,-1.2237209879797943,33.78958464530493
230.80480816160042,-1.220059933200127,33.79607364739097
231.05480816160042,-1.21627405234004,33.80175591509261
231.30480816160042,-1.2131013190868862,33.806156149060115
231.55480816160042,-1.2100372383448545,33.81034259559312
231.80480816160042,-1.2069220861972763,33.815494325756966
232.05480816160042,-1.2035474646243314,33.82047277274252
232.30480816160042,-1.1992453383687187,33.82717693545905
232.55480816160042,-1.1960691636044507,33.83362167528815
232.80480816160042,-1.194013203271396,33.83789958246489
233.05480816160042,-1.1892429516574476,33.84383900469474
233.30480816160042,-1.1854450057861443,33.851603809825214
233.55480816160042,-1.1835558254311132,33.857454903032576
233.80480816160042,-1.179879298457954,33.86375041147464
234.05480816160042,-1.1746701458365567,33.870711674474215
234.30480816160042,-1.1711211088543396,33.875493420373445
234.55480816160042,-1.1678762412522086,33.88036149703544
234.80480816160042,-1.164679554249734,33.88515450772808
235.05480816160042,-1.160129757628369,33.8897578905445
235.30480816160042,-1.155349724404057,33.896361084256036
235.55480816160042,-1.1521467895495097,33.90235345337387
235.80480816160042,-1.1491687550142193,33.90576120877131
236.05480816160042,-1.144248787728141,33.91060985084691
236.30480816160042,-1.140113924209484,33.91671019566232
236.55480816160042,-1.1349040258611724,33.92265257946213
236.80480816160042,-1.13036540598184,33.92821609619237
237.05480816160042,-1.127622320589973,33.932662649757994
237.30480816160042,-1.124256717976357,33.9353241992288
237.55480816160042,-1.1190573025564832,33.938491033405704
237.80480816160042,-1.1132747046093563,33.943992386592264
238.05480816160042,-1.1065435655641225,33.95070848036239
238.30480816160042,-1.099722539116078,33.956591899162895
238.55480816160042,-1.0948737933695,33.96117335464923
238.80480816160042,-1.0878737600509352,33.965347694130365
239.05480816160042,-1.0806302465670852,33.97006717725338
239.30480816160042,-1.0749356695810273,33.97483655728339
239.55480816160042,-1.0692391068535394,33.97929418594824
239.80480816160042,-1.0627472659054964,33.98450925913146
240.05480816160042,-1.0590038949650336,33.988503768672466
240.30480816160042,-1.0543353117129883,33.99127509816108
240.55480816160042,-1.0471276681948862,33.99496483143899
240.80480816160042,-1.0413553164684453,33.99937316105273
241.05480816160042,-1.0380040831970982,34.00298541369221
241.30480816160042,-1.0322537951915123,34.00784168182408
241.55480816160042,-1.0280216116696712,34.0115804073632
241.80480816160042,-1.0232596467807302,34.016790642556536
242.05480816160042,-1.0193982956419343,34.02144327595326
242.30480816160042,-1.0162135214795835,34.02428053474719
242.55480816160042,-1.0112467416463242,34.02777596772673
242.80480816160042,-1.0070868539248596,34.03190394686971
243.05480816160042,-1.0038719820266002,34.035695985698624
243.30480816160042,-1.001155778713967,34.038196609982435
243.55480816160042,-0.997778663683143,34.04033060676762
243.80480816160042,-0.9933361096836039,34.043581475455674
244.05480816160042,-0.9895654523514786,34.04754151813033
244.30480816160042,-0.9875291376410686,34.05071424849682
244.55480816160042,-0.9853878664428327,34.05300451378383
244.80480816160042,-0.9823553325677642,34.0550563631151
245.05480816160042,-0.9793973935989065,34.05736294965848
245.30480816160042,-0.9751532343647612,34.06036913405589
245.55480816160042,-0.9715468155851921,34.06372119625155
245.80480816160042,-0.9690388283007468,34.06625891996262
246.05480816160042,-0.9647420526239306,34.0679517943364
246.30480816160042,-0.9575474308897283,34.07060113649609
246.55480816160042,-0.9522286364307727,34.07488153138578
246.80480816160042,-0.9482756104079456,34.078038913271236
247.05480816160042,-0.9422893678780485,34.081720663915476
247.30480816160042,-0.935699673918995,34.08646729601803
247.55480816160042,-0.9305030054569808,34.09131268397209
247.80480816160042,-0.9257119320313809,34.09566941448363
248.05480816160042,-0.920845935379415,34.09899553485225
248.30480816160042,-0.9157409917020423,34.10242162580916
248.55480816160042,-0.9110021254152652,34.10567776301567
248.80480816160042,-0.9056066572447967,34.10906501443829
249.05480816160042,-0.8983884436310349,34.113339236931616
249.30480816160042,-0.8913945656833766,34.11788437097458
249.55480816160042,-0.8873025101688612,34.12215901258352
249.80480816160042,-0.8833006502896543,34.1250907724836
250.05480816160042,-0.8775643352679071,34.12835250434441
250.30480816160042,-0.8717588379018895,34.13267112700106
250.55480816160042,-0.8661241571355345,34.13465374163088
250.80480816160042,-0.8585234757008379,34.139033665800795
251.05480816160042,-0.8535563427962829,34.14358532079917
251.30480816160042,-0.850796182949708,34.14717609181348
251.55480816160042,-0.8459136502427439,34.1501197409871
251.80480816160042,-0.8386590053716154,34.15245664870318
252.05480816160042,-0.8318653657448835,34.15737973202684
252.30480816160042,-0.8268416268697455,34.16185367212455
252.55480816160042,-0.821274701827494,34.16555862461689
252.80480816160042,-0.8150446393396512,34.168961613683706
253.05480816160042,-0.8084407340340938,34.172603567585206
253.30480816160042,-0.7992526687484787,34.17793339700029
253.55480816160042,-0.7940133637561144,34.181602243866685
253.80480816160042,-0.7903389341179747,34.18454940868215
254.05480816160042,-0.7818265872716619,34.18685655936348
254.30480816160042,-0.7702310626268138,34.18939809775956
254.55480816160042,-0.7648051358336992,34.19556492605539
254.80480816160042,-0.7616678979977675,34.198607636248234
255.05480816160042,-0.7571584302180815,34.19990881853075
255.30480816160042,-0.7518149330233755,34.20209837269978
255.55480816160042,-0.7468829606551639,34.2047084280429
255.80480816160042,-0.7417520124621655,34.20761158993895
256.0548081616004,-0.7375582759881818,34.21263502784199
256.3048081616004,-0.7363877926076123,34.21571609238894
256.5548081616004,-0.7339580012119599,34.21620579409939
256.8048081616004,-0.7287029119810723,34.21717361171889
257.0548081616004,-0.7242374867438842,34.22011751926684
257.3048081616004,-0.7187222677649142,34.22365681247555
257.5548081616004,-0.7143001401716079,34.22678630229518
257.8048081616004,-0.7074802306526997,34.22933574645961
258.0548081616004,-0.6997711317271421,34.23299616787341
258.3048081616004,-0.6951934947281628,34.23771522007792
258.5548081616004,-0.6915377311236622,34.240384073946075
258.8048081616004,-0.6869470260140922,34.241478814549076
259.0548081616004,-0.6832106321850862,34.2437020663063
259.3048081616004,-0.6773877966888253,34.246177543649
259.5548081616004,-0.6692361032955845,34.24903950057066
259.8048081616004,-0.6633850631141894,34.25345851497457
260.0548081616004,-0.6603732706740337,34.25656063179399
260.3048081616004,-0.6579549610253727,34.25820019548894
260.5548081616004,-0.6561642367430048,34.2593929508425
260.8048081616004,-0.6511003107623815,34.26029992944937
261.0548081616004,-0.6434318784423044,34.26222434987063
261.3048081616004,-0.6387216797750401,34.265935155894745
261.5548081616004,-0.6346377567584478,34.268120587927676
261.8048081616004,-0.6295666737452322,34.26951230006635
262.0548081616004,-0.621053264690759,34.27158005187715
262.3048081616004,-0.612704285592113,34.27477440245799
262.5548081616004,-0.6083484771719777,34.278342475727776
262.8048081616004,-0.6037601104824863,34.28110262319722
263.0548081616004,-0.5996186653776419,34.2831228986129
263.3048081616004,-0.5955459343627297,34.28537339076168
263.5548081616004,-0.592316681316701,34.287350561680775
263.8048081616004,-0.5899467033572044,34.28840566032719
264.0548081616004,-0.5849541644439598,34.28978334789057
264.3048081616004,-0.577838894874388,34.29138979180148
264.5548081616004,-0.5712166255787062,34.294786285005586
264.8048081616004,-0.5664896267084445,34.29859586285459
265.0548081616004,-0.5634194976778133,34.30104949834067
265.3048081616004,-0.5597781289046508,34.30245893000873
265.5548081616004,-0.5520047794066233,34.30254067400666
265.8048081616004,-0.542743989315354,34.30336363900722
266.0548081616004,-0.5334728544487843,34.30737144437034
266.3048081616004,-0.5276703307374029,34.3118674111874
266.5548081616004,-0.5253899294215457,34.31397414484622
266.8048081616004,-0.520261202529242,34.316527035105736
267.0548081616004,-0.5167945622984044,34.31878354469598
267.3048081616004,-0.5138530208617034,34.32028107647401
267.5548081616004,-0.5095601078422245,34.32170293262627
267.8048081616004,-0.5053574349816248,34.32375161349377
268.0548081616004,-0.5023709641973924,34.32590544227617
268.3048081616004,-0.4973345341482052,34.32699266196123
268.5548081616004,-0.491487529942187,34.328672506277236
268.8048081616004,-0.4842516470398197,34.33087886693806
269.0548081616004,-0.47694910333655344,34.33369518535237
269.3048081616004,-0.47276807603796334,34.33691307985676
269.5548081616004,-0.4706299574793746,34.33832763187812
269.8048081616004,-0.46562319674986175,34.338870231087924
270.0548081616004,-0.4605245626224935,34.3417310681906
270.3048081616004,-0.45477147714834604,34.34556204373926
270.5548081616004,-0.447791416353264,34.34862668258441
270.8048081616004,-0.44392937287549145,34.35223343764967
271.0548081616004,-0.4424626884716069,34.354225256194944
271.3048081616004,-0.44076910033675093,34.35497972396613
271.5548081616004,-0.43926203402707237,34.356098541810674
271.8048081616004,-0.43531899722684475,34.35751749920571
272.0548081616004,-0.428368593783979,34.359113717224886
272.3048081616004,-0.426247126456609,34.36207420119059
272.5548081616004,-0.4214759793696124,34.36211179387821
272.8048081616004,-0.41455320681740737,34.36382197400116
273.0548081616004,-0.4100163882154993,34.3673094289439
273.3048081616004,-0.4076226350917994,34.36929972090405
273.5548081616004,-0.4031489117127251,34.37114015056634
273.8048081616004,-0.397323712370398,34.37310382699161
274.0548081616004,-0.3922500998256445,34.37498645234612
274.3048081616004,-0.38721199653069033,34.37706273883806
274.5548081616004,-0.3815525652841815,34.3797826136979
274.8048081616004,-0.37645690548819954,34.38255720198356
275.0548081616004,-0.3717466308634337,34.38403417794812
275.3048081616004,-0.36827876208083166,34.38630533181133
275.5548081616004,-0.3660836950777316,34.38785823003496
275.8048081616004,-0.36389190531881943,34.38828520803249
276.0548081616004,-0.3605131897688976,34.389147032169966
276.3048081616004,-0.35518836308627577,34.3902990185449
276.5548081616004,-0.3467507597887154,34.391831538022664
276.8048081616004,-0.340142943259545,34.39554985458216
277.0548081616004,-0.3372249808841075,34.39860538709735
277.3048081616004,-0.3359983890563012,34.39940785645472
277.5548081616004,-0.333551701596568,34.400255074735384
277.8048081616004,-0.3279740861949962,34.400440272524214
278.0548081616004,-0.32436811156264383,34.40166768237804
278.3048081616004,-0.3194942566500286,34.403067299078444
278.5548081616004,-0.3129007270462047,34.405182415690874
278.8048081616004,-0.3099878568037342,34.40917985588362
279.0548081616004,-0.30872924818934955,34.41130948106724
279.3048081616004,-0.30517448987282003,34.411326722175716
279.5548081616004,-0.2972847091829445,34.41143512261603
279.8048081616004,-0.28923089927434925,34.41336397011816
280.0548081616004,-0.2847188185979825,34.41667773443023
280.3048081616004,-0.28199204128421473,34.41943868618202
280.5548081616004,-0.2806737879691535,34.42057290523538
280.8048081616004,-0.27974961649134805,34.42096742204486
281.0548081616004,-0.2789300610576498,34.421446385011315
