Depth,Temperature,Salinity
151.34112823720162,-1.4668249691946593,33.06338316663456
151.59112823720162,-1.4666604828019507,33.06549467505097
151.84112823720162,-1.4666608318366696,33.06816131543943
152.09112823720162,-1.4667386894239265,33.07190044378177
152.34112823720162,-1.466847055807156,33.07537948709659
152.59112823720162,-1.4668227159370817,33.077357437062844
152.84112823720162,-1.4664644040624355,33.07982816142816
153.09112823720162,-1.4665406810077435,33.08246191557923
153.34112823720162,-1.4664859249314224,33.08585213871839
153.59112823720162,-1.4658540807321283,33.08961888837099
153.84112823720162,-1.4651934933056132,33.092581500350065
154.09112823720162,-1.464704395984391,33.095831672593015
154.34112823720162,-1.4642203407553172,33.09829900471729
154.59112823720162,-1.4636369424123157,33.101715695611944
154.84112823720162,-1.4629301347577206,33.10651982649957
155.09112823720162,-1.46205185467747,33.109923892840754
155.34112823720162,-1.4610225522775637,33.11234307469037
155.59112823720162,-1.4601830513320644,33.11456257421153
155.84112823720162,-1.4593852477675442,33.11806392238769
156.09112823720162,-1.4584567380545095,33.12257755827258
156.34112823720162,-1.457603267032087,33.12579889437494
156.59112823720162,-1.4564871045252665,33.12894193071677
156.84112823720162,-1.4556188656418496,33.13097890899408
157.09112823720162,-1.454299742175849,33.13366362448028
157.34112823720162,-1.4526028648453186,33.1387481184176
157.59112823720162,-1.4526732147035792,33.14320012702281
157.84112823720162,-1.4527078611298105,33.145959464198974
158.09112823720162,-1.4528622040596955,33.14771027004279
158.34112823720162,-1.4539990548998998,33.15084183614339
158.59112823720162,-1.455350177936143,33.15647647071725
158.84112823720162,-1.4551894519599002,33.16216199085268
159.09112823720162,-1.4550749277472579,33.16718445518184
159.34112823720162,-1.454687107294631,33.17033638953893
159.59112823720162,-1.454196441176656,33.174047196728885
159.84112823720162,-1.4539455995546062,33.18068078887403
160.09112823720162,-1.4518622109504677,33.18593550457889
160.34112823720162,-1.4496382773040672,33.19165318949625
160.59112823720162,-1.448091347011453,33.195778474807895
160.84112823720162,-1.4465920065630034,33.199652199029636
161.09112823720162,-1.4449072712047395,33.206997242376566
161.34112823720162,-1.4439530344622669,33.21367538361736
161.59112823720162,-1.4431330756480598,33.21938734253695
161.84112823720162,-1.4422389404449054,33.22321391006943
162.09112823720162,-1.4402238102744302,33.2273901414971
162.34112823720162,-1.4366294249322122,33.23433092113402
162.59112823720162,-1.4340809115605713,33.23981850464604
162.84112823720162,-1.4329278667494298,33.244155288024196
163.09112823720162,-1.4323075520162658,33.24743243840083
163.34112823720162,-1.4312459832781221,33.251547121559774
163.59112823720162,-1.429696937933838,33.25804924073102
163.84112823720162,-1.4286420805132922,33.26409719830879
164.09112823720162,-1.427735448804418,33.26994865408965
164.34112823720162,-1.4268964116271945,33.274365215014576
164.59112823720162,-1.4261962566376236,33.28030266500244
164.84112823720162,-1.4255787810185396,33.28997584206825
165.09112823720162,-1.4249376119300805,33.29673993645218
165.34112823720162,-1.4238946907119363,33.30166204080738
165.59112823720162,-1.4227168760839586,33.30522122594126
165.84112823720162,-1.4208824551485435,33.3094336783134
166.09112823720162,-1.4182667133885358,33.3163118074964
166.34112823720162,-1.4174261364627718,33.32182736727202
166.59112823720162,-1.4171601480576315,33.326332257005994
166.84112823720162,-1.4168640460067852,33.33077464988134
167.09112823720162,-1.4164801188385143,33.33561000685843
167.34112823720162,-1.4157304892219744,33.34055456972687
167.59112823720162,-1.415146098387384,33.3440800999547
167.84112823720162,-1.414319425040866,33.34762735893808
168.09112823720162,-1.4135415529775075,33.351382505872564
168.34112823720162,-1.412293246534373,33.355677101176134
168.59112823720162,-1.4100173824769828,33.36104751335943
168.84112823720162,-1.4088273640100937,33.365474991179546
169.09112823720162,-1.4081399235976968,33.36902408345092
169.34112823720162,-1.4067335385646926,33.372002660276586
169.59112823720162,-1.4047161376945807,33.37570995255021
169.84112823720162,-1.4030939872626222,33.381001523208724
170.09112823720162,-1.4017393342090092,33.384830923186385
170.34112823720162,-1.400636325178465,33.387995611747144
170.59112823720162,-1.3995883303387766,33.39160760216039
170.84112823720162,-1.3979637185489484,33.39613522567348
171.09112823720162,-1.3955231604872824,33.40172713966352
171.34112823720162,-1.3937726112381206,33.406865015850336
171.59112823720162,-1.3922217295569843,33.41147617533581
171.84112823720162,-1.3904633471473402,33.4164433261756
172.09112823720162,-1.3886124398056021,33.42333968371276
172.34112823720162,-1.386384488235127,33.432837477769446
172.59112823720162,-1.3838113473122748,33.44130996758699
172.84112823720162,-1.382019936342127,33.44843538505931
173.09112823720162,-1.3809814163913505,33.45513725640505
173.34112823720162,-1.379334423866959,33.462801564740694
173.59112823720162,-1.3766356813425944,33.471632557312816
173.84112823720162,-1.3749222209442153,33.47707651337306
174.09112823720162,-1.3734893346437347,33.48129240018459
174.34112823720162,-1.3715282460397726,33.487029179239244
174.59112823720162,-1.3687576691068537,33.494240614860935
174.84112823720162,-1.3656002757121466,33.5014202945162
175.09112823720162,-1.3639884856559321,33.507499692578584
175.34112823720162,-1.3622332611714973,33.511324952276546
175.59112823720162,-1.359737256892357,33.51674922311429
175.84112823720162,-1.3571549974345443,33.52454148540489
176.09112823720162,-1.354716344415213,33.530334945292815
176.34112823720162,-1.352486482970264,33.5351987627437
176.59112823720162,-1.350904375066989,33.53887191338277
176.84112823720162,-1.348738625299193,33.543670509617726
177.09112823720162,-1.3458105910218272,33.54996635704632
177.34112823720162,-1.3437460127880045,33.55466181672319
177.59112823720162,-1.3419702700976202,33.55853376195719
177.84112823720162,-1.339892444255752,33.5632664759083
178.09112823720162,-1.336522613577454,33.569544908961674
178.34112823720162,-1.3328232425753943,33.57662133756658
178.59112823720162,-1.3305006004283482,33.583025722521
178.84112823720162,-1.327201549230996,33.588095910426375
179.09112823720162,-1.3242327497411068,33.593272438054726
179.34112823720162,-1.3210832598508095,33.599752457045575
179.59112823720162,-1.3172225308521206,33.606524737681255
179.84112823720162,-1.3139713061174672,33.611618210136456
180.09112823720162,-1.3111465411864294,33.615871674114786
180.34112823720162,-1.3077294945638274,33.621902897734316
180.59112823720162,-1.3033656180509163,33.628623047208926
180.84112823720162,-1.2991083730505764,33.63477852589928
181.09112823720162,-1.295978493479391,33.64079532068821
181.34112823720162,-1.292447581733784,33.64495596908246
181.59112823720162,-1.287530337656327,33.65186532764106
181.84112823720162,-1.2830045745984768,33.65945964654427
182.09112823720162,-1.2798478323647795,33.66524522088165
182.34112823720162,-1.2767928755994384,33.67138556369903
182.59112823720162,-1.274037877602534,33.67592808107628
182.84112823720162,-1.2700489068082677,33.68177563295146
183.09112823720162,-1.266023261343281,33.68876527564041
183.34112823720162,-1.263036186919366,33.69442562053376
183.59112823720162,-1.2599142937904353,33.69831951476396
183.84112823720162,-1.2573226133272655,33.70207858024732
184.09112823720162,-1.2538126066131074,33.70852016917041
184.34112823720162,-1.2502499046179396,33.7149240492183
184.59112823720162,-1.2478084282840882,33.718809199568774
184.84112823720162,-1.2452300032786134,33.722787769433644
185.09112823720162,-1.2419521600772034,33.72714972725937
185.34112823720162,-1.2379816373761166,33.73213374342613
185.59112823720162,-1.2347103769735297,33.7371327049525
185.84112823720162,-1.2326925022872104,33.74070985126946
186.09112823720162,-1.2303905712269771,33.74312596212019
186.34112823720162,-1.227062707420633,33.74856727525348
186.59112823720162,-1.2225837184795292,33.75584895634808
186.84112823720162,-1.2181947430608895,33.76268123823552
187.09112823720162,-1.2147181719001265,33.7682015118838
187.34112823720162,-1.210579590654466,33.77384303822462
187.59112823720162,-1.2034540614943052,33.783359140092074
187.84112823720162,-1.196677774402265,33.7926547859929
188.09112823720162,-1.1918882467433138,33.80021150097877
188.34112823720162,-1.188255661529426,33.806047729566174
188.59112823720162,-1.1846626996583605,33.809728951315556
188.84112823720162,-1.1789337680351142,33.81736492914694
189.09112823720162,-1.1736437545962242,33.824933274246526
189.34112823720162,-1.1702537153591457,33.8308102781955
189.59112823720162,-1.1676526146074515,33.835515413724224
189.84112823720162,-1.164138092802158,33.83824451039329
190.09112823720162,-1.1582822082244055,33.84450727233516
190.34112823720162,-1.1529037835489073,33.85169209571929
190.59112823720162,-1.1487964366443442,33.857913574898895
190.84112823720162,-1.1451957572554212,33.862817247069195
191.09112823720162,-1.141357598151141,33.866629161625426
191.34112823720162,-1.1351526601167263,33.87345199228783
191.59112823720162,-1.13073519628098,33.87987538811602
191.84112823720162,-1.1278483117505689,33.88447471313775
192.09112823720162,-1.1245969764652597,33.88823323863734
192.34112823720162,-1.121223584916688,33.89212825831084
192.59112823720162,-1.1164475291429945,33.89792843924568
192.84112823720162,-1.112457894930371,33.90339263545817
193.09112823720162,-1.1089261598172844,33.907374957302274
193.34112823720162,-1.1048438183961222,33.911876038800386
193.59112823720162,-1.1000943206575535,33.918531508240065
193.84112823720162,-1.0940299373214275,33.924867736755424
194.09112823720162,-1.0901778561728606,33.93029975151873
194.34112823720162,-1.0872414252909097,33.93394786373012
194.59112823720162,-1.0832157790294674,33.93763142050697
194.84112823720162,-1.0786932502894058,33.94333891330778
195.09112823720162,-1.0744501910661928,33.94849520635496
195.34112823720162,-1.0706303619308482,33.9534126699823
195.59112823720162,-1.0672440745583345,33.957972141639715
195.84112823720162,-1.0623625294598624,33.96365371255896
196.09112823720162,-1.0561724489190767,33.97080958404331
196.34112823720162,-1.0528929069149018,33.97588430119758
196.59112823720162,-1.049964511299939,33.97918952904433
196.84112823720162,-1.0460690100941163,33.983469357875144
197.09112823720162,-1.0420601483608967,33.98828418070957
197.34112823720162,-1.038917981062029,33.992350229325694
197.59112823720162,-1.036485932951156,33.99639838564182
197.84112823720162,-1.0339699614206654,33.999374925472566
198.09112823720162,-1.030023126119291,34.00362753164644
198.34112823720162,-1.0261688083328249,34.00829929951939
198.59112823720162,-1.0237144707303825,34.01168685905835
198.84112823720162,-1.0213397283971262,34.01508079312426
199.09112823720162,-1.018779053111395,34.01924259135236
199.34112823720162,-1.0156053026393734,34.02337548385698
199.59112823720162,-1.0128009021473245,34.02786147208254
199.84112823720162,-1.0107262435131823,34.03173304720595
200.09112823720162,-1.0079632510896444,34.03397607375759
200.34112823720162,-1.004191555579358,34.0388008087627
200.59112823720162,-1.00131137712462,34.04304551195058
200.84112823720162,-0.9989974244011459,34.046141941569736
201.09112823720162,-0.9957683421554201,34.04961684250111
201.34112823720162,-0.9916179737833456,34.05383506984814
201.59112823720162,-0.9880505837755897,34.05840559348323
201.84112823720162,-0.9853709524435481,34.06164604555919
202.09112823720162,-0.9829098163394915,34.06439734859261
202.34112823720162,-0.9795322700112047,34.06798269537681
202.59112823720162,-0.9756274052998801,34.07221459953542
202.84112823720162,-0.9734108057334033,34.07597897047912
203.09112823720162,-0.9706204545098223,34.07875293922311
203.34112823720162,-0.9669565822294643,34.08224395642435
203.59112823720162,-0.9631270684808486,34.08692563030691
203.84112823720162,-0.9594903240140455,34.091554941287846
204.09112823720162,-0.9565866944459354,34.095696779239155
204.34112823720162,-0.9535220623293603,34.09830549379138
204.59112823720162,-0.9484974846355999,34.10335527882262
204.84112823720162,-0.9432660702088125,34.11027736264129
205.09112823720162,-0.9408104951717271,34.11476171766363
205.34112823720162,-0.939764193709584,34.118313201416385
205.59112823720162,-0.939286262510868,34.12172345786736
205.84112823720162,-0.9387172375410624,34.12657200431464
206.09112823720162,-0.9381496498831362,34.13073869338668
206.34112823720162,-0.9370886389981136,34.131848774123235
206.59112823720162,-0.9337862354895705,34.133229805737436
206.84112823720162,-0.9282113880856465,34.139380866726675
207.09112823720162,-0.9226353359686389,34.144025524504706
207.34112823720162,-0.9174782563217645,34.1473384882157
207.59112823720162,-0.9113180410714224,34.15116757803736
207.84112823720162,-0.9031595784579011,34.15434230408248
208.09112823720162,-0.8941062278180782,34.16083798978035
208.34112823720162,-0.8879648700466914,34.16803501618766
208.59112823720162,-0.8846480435641246,34.17080425703711
208.84112823720162,-0.8801885439440589,34.17232149588497
209.09112823720162,-0.8729226539720752,34.17745446557986
209.34112823720162,-0.8670136376299988,34.17958290133265
209.59112823720162,-0.8608891616294814,34.18617074737564
209.84112823720162,-0.85604915232735,34.19113006634876
210.09112823720162,-0.8527652153810142,34.1913334485132
210.34112823720162,-0.8480370020038219,34.193459647520086
210.59112823720162,-0.8413935618772147,34.19726542020757
210.84112823720162,-0.8362917965616677,34.20019389276386
211.09112823720162,-0.8322147730428011,34.201180449288984
211.34112823720162,-0.8265475371399511,34.203989297585004
211.59112823720162,-0.8200821821530379,34.20995869459542
211.84112823720162,-0.8169825510342926,34.21254516803492
212.09112823720162,-0.8152843314361918,34.21283701155354
212.34112823720162,-0.810860955003092,34.21444428544021
212.59112823720162,-0.8035774014478392,34.21863436101942
212.84112823720162,-0.7976005405211768,34.22304371215291
213.09112823720162,-0.7956967926244389,34.22449804696137
213.34112823720162,-0.7937921267680773,34.22410314345265
213.59112823720162,-0.7897479747281897,34.225667516736436
213.84112823720162,-0.7829124827052405,34.23018422347554
214.09112823720162,-0.7766062055898998,34.23440878579515
214.34112823720162,-0.7749369954273913,34.23549145511267
214.59112823720162,-0.7736851028105158,34.23620176380776
214.84112823720162,-0.7722448746950628,34.23646489176373
215.09112823720162,-0.766720999925765,34.23908737138413
215.34112823720162,-0.7593989829087492,34.24414427730462
215.59112823720162,-0.757097384033749,34.24738813237582
215.84112823720162,-0.7559215944274157,34.24807261802187
216.09112823720162,-0.755314408202779,34.24784220300051
216.34112823720162,-0.7507291753782819,34.250875298674664
216.59112823720162,-0.7433638580372368,34.2564716055579
216.84112823720162,-0.7395014154889118,34.25999262159524
217.09112823720162,-0.7383597918915347,34.26103974803555
217.34112823720162,-0.7376064491611758,34.26086578169372
217.59112823720162,-0.7288367201008713,34.265059505611305
217.84112823720162,-0.7190401374475499,34.27133444481251
218.09112823720162,-0.7191200493661849,34.27282538014201
218.34112823720162,-0.7174289628312418,34.272689853434876
218.59112823720162,-0.7060317039435029,34.278894648120605
218.84112823720162,-0.6988959426795925,34.2844102142534
219.09112823720162,-0.6984640095604122,34.28568189493984
219.34112823720162,-0.6971202020106432,34.28602623222026
219.59112823720162,-0.695730061062481,34.28653147322756
219.84112823720162,-0.6867123885437648,34.29111339509427
220.09112823720162,-0.6780047942822534,34.296272979066806
220.34112823720162,-0.6745449485555702,34.298828080932196
220.59112823720162,-0.6735968516653743,34.299531850011405
220.84112823720162,-0.6725377411002087,34.30008082801405
221.09112823720162,-0.6714486093536939,34.300087698307124
221.34112823720162,-0.6712332576095744,34.30010604052745
221.59112823720162,-0.6610265519281584,34.304309661132244
221.84112823720162,-0.6475037579809192,34.31078136921605
222.09112823720162,-0.6471104705633014,34.313276702543085
222.34112823720162,-0.6458783537301362,34.31396235090732
222.59112823720162,-0.6446866933248289,34.3136070430991
222.84112823720162,-0.6383160545710558,34.31646323851241
223.09112823720162,-0.628864983024124,34.32176191841505
223.34112823720162,-0.6243213599643336,34.32473526895567
223.59112823720162,-0.6225155706617342,34.32554220506274
223.84112823720162,-0.6211625850215219,34.326066730677404
224.09112823720162,-0.6199154151323666,34.326195590603085
224.34112823720162,-0.6196106441221378,34.32622993238433
224.59112823720162,-0.6181999086233124,34.326821425412454
224.84112823720162,-0.6112266168248411,34.32830119245869
225.09112823720162,-0.6019163555148536,34.33243907093251
225.34112823720162,-0.5976027343880721,34.335714133592624
225.59112823720162,-0.5983734669242757,34.336097570258374
225.84112823720162,-0.5935409711470766,34.33745985206422
226.09112823720162,-0.5781786950283762,34.34325210510253
226.34112823720162,-0.5735516673443808,34.346073221489284
226.59112823720162,-0.5729991637436682,34.34675370226001
226.84112823720162,-0.5716773899281471,34.34737291717797
227.09112823720162,-0.5707565076093767,34.34762274251374
227.34112823720162,-0.5698883803298505,34.34711155726279
227.59112823720162,-0.5698022655061104,34.347666542949334
227.84112823720162,-0.5593437282364683,34.35099421333074
228.09112823720162,-0.5471591175300438,34.35574745794372
228.34112823720162,-0.5427376981735561,34.35918139858426
228.59112823720162,-0.5418164876273219,34.36035851745404
228.84112823720162,-0.5408482006896899,34.36078228697773
229.09112823720162,-0.5394032383777563,34.360356604228684
229.34112823720162,-0.5388483825504603,34.36043253100431
229.59112823720162,-0.5317284566758658,34.36234967461224
229.84112823720162,-0.5175623531105694,34.36618818006047
230.09112823720162,-0.5134775101662603,34.370602090057844
230.34112823720162,-0.5123665162827366,34.37227092893482
230.59112823720162,-0.5105367800464433,34.37178121699743
230.84112823720162,-0.5108021704491716,34.37167607056622
231.09112823720162,-0.5067545395689862,34.373949802594005
231.34112823720162,-0.4906018029752749,34.37850730009264
231.59112823720162,-0.4857014194997424,34.38245904651532
231.84112823720162,-0.4850944644567706,34.383886040998085
232.09112823720162,-0.4831888059526433,34.383728806500976
232.34112823720162,-0.48194340191056095,34.383430672830855
232.59112823720162,-0.4815768973154596,34.38347601818579
232.84112823720162,-0.4818674201791649,34.38452626370824
233.09112823720162,-0.4777934280330943,34.384378745468425
233.34112823720162,-0.46497634717306285,34.38718020759697
233.59112823720162,-0.4524498190532725,34.392608323322605
233.84112823720162,-0.45146823791712487,34.39435822577421
234.09112823720162,-0.4504254303487767,34.39519980841483
234.34112823720162,-0.4486178750009327,34.395260293583114
234.59112823720162,-0.4496416983191388,34.395603459306116
234.84112823720162,-0.4438228254918683,34.398142222542575
235.09112823720162,-0.4268067068232974,34.40268791882771
235.34112823720162,-0.4212877185864834,34.406253707137594
235.59112823720162,-0.420178301039713,34.408005737173106
235.84112823720162,-0.41876006357985784,34.407856461698444
236.09112823720162,-0.4176011106265777,34.407261582673115
236.34112823720162,-0.4166249561896732,34.40737545179588
236.59112823720162,-0.4152948616751518,34.40718717681112
236.84112823720162,-0.41422555457347865,34.40802042819891
237.09112823720162,-0.40021985354758316,34.41198819821222
237.34112823720162,-0.3857190844130838,34.41686764855815
237.59112823720162,-0.3861890634460967,34.41897843056257
237.84112823720162,-0.3845942105955579,34.41901262998615
238.09112823720162,-0.3832388254556412,34.419106359593705
238.34112823720162,-0.38192866846952805,34.41871862246424
