Depth,Temperature,Salinity
188.6925521962729,-1.4985108460222558,33.07334114929655
188.9425521962729,-1.4983495772335562,33.07633734966097
189.1925521962729,-1.4981310882022147,33.07973258695206
189.4425521962729,-1.4976767181643227,33.08163708479625
189.6925521962729,-1.4973032519203997,33.08360725167325
189.9425521962729,-1.4974140042114608,33.08755103079695
190.1925521962729,-1.4977241471815879,33.09067008479335
190.4425521962729,-1.4979989737702903,33.09335242354728
190.6925521962729,-1.497183639467985,33.09639223016509
190.9425521962729,-1.4951468235742185,33.09985202083462
191.1925521962729,-1.493272189391535,33.10316564904015
191.4425521962729,-1.4925072122692016,33.10581491445804
191.6925521962729,-1.4911595202854766,33.10869009284858
191.9425521962729,-1.4899064219793827,33.112188929888966
192.1925521962729,-1.4891159201088033,33.11558630113473
192.4425521962729,-1.4881270492241565,33.118111291612756
192.6925521962729,-1.4876184560905135,33.120652979058065
192.9425521962729,-1.4872333212504523,33.12537203822438
193.1925521962729,-1.4866575821012333,33.1295178407624
193.4425521962729,-1.486080886287473,33.132901052402076
193.6925521962729,-1.4857979587296903,33.13749316255222
193.9425521962729,-1.4856099806881553,33.14022653980396
194.1925521962729,-1.4851346477143972,33.1430048002084
194.4425521962729,-1.484617716039755,33.145832736871476
194.6925521962729,-1.4841891294464347,33.149541090430624
194.9425521962729,-1.4836874598490997,33.15506154952501
195.1925521962729,-1.4833263797023328,33.15906251528502
195.4425521962729,-1.4830804572782457,33.16311781098951
195.6925521962729,-1.4828313890607612,33.16752483982729
195.9425521962729,-1.4825949928903248,33.172134453240155
196.1925521962729,-1.482426326671892,33.17613953450071
196.4425521962729,-1.4822523337001416,33.177980194593275
196.6925521962729,-1.482162237598282,33.18251421256002
196.9425521962729,-1.482172884457929,33.186642560234986
197.1925521962729,-1.48238839391178,33.18928110027447
197.4425521962729,-1.48275357669703,33.1922783566
197.6925521962729,-1.4830233494996188,33.19517927448332
197.9425521962729,-1.4835475784523247,33.20090077344992
198.1925521962729,-1.4838851151767252,33.206031914153364
198.4425521962729,-1.4838054230136477,33.20883304767281
198.6925521962729,-1.4834817391779653,33.210648875348674
198.9425521962729,-1.4830722238234069,33.212966672774435
199.1925521962729,-1.4828142603871788,33.21850102971685
199.4425521962729,-1.482429775966602,33.22346651488619
199.6925521962729,-1.481993507210842,33.22597129471993
199.9425521962729,-1.48175655636768,33.228550967312174
200.1925521962729,-1.4815483286905027,33.23300526434307
200.4425521962729,-1.4811265748972346,33.23633175622236
200.6925521962729,-1.480561446100171,33.241226452208025
200.9425521962729,-1.480012283957966,33.247401649170904
201.1925521962729,-1.4795706245006885,33.25188638009217
201.4425521962729,-1.4792491616801666,33.2545187105498
201.6925521962729,-1.4789496855843618,33.25701470325398
201.9425521962729,-1.478334035561095,33.26091424921576
202.1925521962729,-1.4777874583546713,33.2646682039348
202.4425521962729,-1.4773624093625801,33.26715649898438
202.6925521962729,-1.47647692514714,33.26985497089078
202.9425521962729,-1.4759474495990197,33.27235579388697
203.1925521962729,-1.4756083624687166,33.27565620334316
203.4425521962729,-1.474582020758557,33.28014492442598
203.6925521962729,-1.4729608079086887,33.2854128988578
203.9425521962729,-1.4717991092176435,33.29088429031427
204.1925521962729,-1.4708348971888852,33.295515762893324
204.4425521962729,-1.4699249148544082,33.29917388239631
204.6925521962729,-1.468897356858878,33.302465891724346
204.9425521962729,-1.4675581555403512,33.30671387595777
205.1925521962729,-1.466130787938738,33.31219037270632
205.4425521962729,-1.46533429814898,33.3162303861471
205.6925521962729,-1.4646704378368156,33.3196269162627
205.9425521962729,-1.4638805413924443,33.322810334080266
206.1925521962729,-1.462741315384848,33.3265821031012
206.4425521962729,-1.4609385897544749,33.33212521795323
206.6925521962729,-1.458936007927585,33.33817718561095
206.9425521962729,-1.4574174925088188,33.34399452755888
207.1925521962729,-1.4562565602957802,33.34902380279811
207.4425521962729,-1.4548419659555885,33.3535779587837
207.6925521962729,-1.4530648824737515,33.358608910523174
207.9425521962729,-1.4516405392584297,33.36400950345263
208.1925521962729,-1.4504600619303893,33.3685548013394
208.4425521962729,-1.4492984049322024,33.37185326819109
208.6925521962729,-1.4485716998145193,33.37504043113036
208.9425521962729,-1.4473604895752776,33.379263559728216
209.1925521962729,-1.443014611147724,33.38406391948145
209.4425521962729,-1.4405033003332959,33.389850304143465
209.6925521962729,-1.439375191898948,33.39584824040553
209.9425521962729,-1.4380234642151837,33.40053037809189
210.1925521962729,-1.4369053591460947,33.403425675634615
210.4425521962729,-1.4353364839833347,33.40611926006542
210.6925521962729,-1.4333695805211935,33.41034505491682
210.9425521962729,-1.4316257157237893,33.41505194585344
211.1925521962729,-1.4305456564649957,33.41827173179093
211.4425521962729,-1.4295979955939015,33.42028442446322
211.6925521962729,-1.4277471321125996,33.423438413916806
211.9425521962729,-1.425947044589191,33.426531872322876
212.1925521962729,-1.4242528257644225,33.430054174827525
212.4425521962729,-1.4226123569855325,33.43371505602714
212.6925521962729,-1.4213931270621607,33.43653055468956
212.9425521962729,-1.4203030676526842,33.439540449695976
213.1925521962729,-1.4177436696658017,33.44449178545527
213.4425521962729,-1.4155350504504702,33.44974503077663
213.6925521962729,-1.4142028511313678,33.45364934782776
213.9425521962729,-1.4128233606386995,33.456852030117886
214.1925521962729,-1.4114750119307102,33.46061437158191
214.4425521962729,-1.409702872120974,33.46369854491191
214.6925521962729,-1.4064598078722241,33.46805914640074
214.9425521962729,-1.4031573014430174,33.47503198286836
215.1925521962729,-1.401200968099921,33.48197617396269
215.4425521962729,-1.3994260600476933,33.48573436834453
215.6925521962729,-1.3974419869223558,33.49006022637633
215.9425521962729,-1.3959141481033481,33.49374555091652
216.1925521962729,-1.3933788734259283,33.497814758203305
216.4425521962729,-1.3901835328365588,33.50320806898453
216.6925521962729,-1.3887617370477936,33.50741889342817
216.9425521962729,-1.3860269013167064,33.51067122439781
217.1925521962729,-1.3836198555975747,33.51526536770008
217.4425521962729,-1.3818383334786384,33.520240245601755
217.6925521962729,-1.3793782598905835,33.524168631976266
217.9425521962729,-1.3760788582409849,33.528825053090834
218.1925521962729,-1.3730514875221336,33.535878317101314
218.4425521962729,-1.3712886630523,33.53928720816579
218.6925521962729,-1.368701498116635,33.54407266544226
218.9425521962729,-1.3652104265542924,33.55211992020134
219.1925521962729,-1.3632666606815451,33.55761892264982
219.4425521962729,-1.3619466247855083,33.56271649350771
219.6925521962729,-1.359853922584447,33.56668624446272
219.9425521962729,-1.357693022222353,33.57057298533341
220.1925521962729,-1.3560500968815958,33.575227048030605
220.4425521962729,-1.3543257482660804,33.57917887523193
220.6925521962729,-1.3521389414768687,33.58116524132216
220.9425521962729,-1.3492338372285118,33.584388755222584
221.1925521962729,-1.3447589206908797,33.58872322795412
221.4425521962729,-1.339330122275641,33.594696966032245
221.6925521962729,-1.3347264459697514,33.60252291267778
221.9425521962729,-1.3312269268944399,33.60829358358009
222.1925521962729,-1.3274001533675341,33.61362174509463
222.4425521962729,-1.3228842160075192,33.620322199775416
222.6925521962729,-1.3194551085650286,33.62648901058552
222.9425521962729,-1.3174244760676317,33.630446446434235
223.1925521962729,-1.3140268828689323,33.63492099022774
223.4425521962729,-1.311204583467257,33.640055081757374
223.6925521962729,-1.3085303347196784,33.64501146823323
223.9425521962729,-1.305921979511329,33.6492449842488
224.1925521962729,-1.302498321194087,33.65450456191688
224.4425521962729,-1.2964102660131993,33.66280732079546
224.6925521962729,-1.2911598252503316,33.67033057091196
224.9425521962729,-1.2877579340450076,33.677237736254064
225.1925521962729,-1.2851505149948346,33.68254216983123
225.4425521962729,-1.2824012728512968,33.686140275046675
225.6925521962729,-1.2789235490594473,33.69046270086535
225.9425521962729,-1.2737880516655322,33.695936922364965
226.1925521962729,-1.2694351047516135,33.70266625404475
226.4425521962729,-1.2665909004935687,33.70792966501757
226.6925521962729,-1.2638813761408272,33.710870104167014
226.9425521962729,-1.2607773376240872,33.71462154713393
227.1925521962729,-1.2583255333163974,33.720675252833146
227.4425521962729,-1.2536170172542307,33.72420059762752
227.6925521962729,-1.2476775438811714,33.72892976101998
227.9425521962729,-1.2419894865133447,33.73708019900673
228.1925521962729,-1.2372462305875982,33.74466536216302
228.4425521962729,-1.2347551971933008,33.74932506734824
228.6925521962729,-1.2315110239467117,33.75314020775841
228.9425521962729,-1.2278087059935887,33.758812651566046
229.1925521962729,-1.2245516180035565,33.76493485784828
229.4425521962729,-1.2218027442117985,33.76910752756809
229.6925521962729,-1.2196135733887208,33.772672280602954
229.9425521962729,-1.2176222817885396,33.77792968405778
230.1925521962729,-1.215242637875112,33.781607066069604
230.4425521962729,-1.2131113628646508,33.78610103312592
230.6925521962729,-1.2112596227232002,33.79225961261949
230.9425521962729,-1.2085294003367635,33.79608798333003
231.1925521962729,-1.2054679788791927,33.80155190764451
231.4425521962729,-1.2030265435675345,33.80760698920669
231.6925521962729,-1.201637479808683,33.81190862683744
231.9425521962729,-1.2004297015250844,33.814706592181
232.1925521962729,-1.1981682307723232,33.818251322945834
232.4425521962729,-1.1954881573882943,33.82335273125038
232.6925521962729,-1.193089070512534,33.82985885287578
232.9425521962729,-1.1915146997372874,33.83527695320608
233.1925521962729,-1.1895571815617956,33.83937940938287
233.4425521962729,-1.1847375930799746,33.84424041375848
233.6925521962729,-1.1774975869307476,33.84859311484685
233.9425521962729,-1.1730790142806693,33.85283239024024
234.1925521962729,-1.1629650383544745,33.856282505648636
234.4425521962729,-1.14886492070773,33.86042172288915
234.6925521962729,-1.14208130973886,33.868040824260575
234.9425521962729,-1.1377872841765977,33.87741151655216
235.1925521962729,-1.134112274911702,33.88362624253909
235.4425521962729,-1.1316446888529519,33.890273685396984
235.6925521962729,-1.128783811435814,33.89726143594264
235.9425521962729,-1.1238397359824297,33.90153943982352
236.1925521962729,-1.1190534499928946,33.905922616894244
236.4425521962729,-1.1159535148394535,33.910554778762815
236.6925521962729,-1.110201288957076,33.914917947593096
236.9425521962729,-1.1033534526679583,33.92028664221221
237.1925521962729,-1.0997280651285306,33.92580986638157
237.4425521962729,-1.0972642627453937,33.92848873175354
237.6925521962729,-1.0919049032793509,33.93228848824632
237.9425521962729,-1.0869227068222038,33.93778179966413
238.1925521962729,-1.0830620825128519,33.942475091534064
238.4425521962729,-1.0790529609464157,33.946640904500704
238.6925521962729,-1.0753337081059395,33.95216107307248
238.9425521962729,-1.0717527006779217,33.95533569563953
239.1925521962729,-1.068446625325526,33.96004074131095
239.4425521962729,-1.0638954241537384,33.96544124092921
239.6925521962729,-1.0589799808080709,33.96996585446351
239.9425521962729,-1.0561568649415116,33.974871995495846
240.1925521962729,-1.0529208775257408,33.97919493491766
240.4425521962729,-1.0474551546476147,33.984873760835356
240.6925521962729,-1.044468891212417,33.989319457787985
240.9425521962729,-1.0424546474838348,33.99254895820588
241.1925521962729,-1.03743017397319,33.99662481019191
241.4425521962729,-1.0344464680699512,33.999498459679906
241.6925521962729,-1.0286588208261693,34.00487295008273
241.9425521962729,-1.0230911857200287,34.01083531949857
242.1925521962729,-1.019211014233133,34.01645896008307
242.4425521962729,-1.0145679518139081,34.022170337437295
242.6925521962729,-1.0089839411554313,34.026783871033054
242.9425521962729,-1.0037693044199814,34.03228705949985
243.1925521962729,-0.9986133522474472,34.038053487459685
243.4425521962729,-0.9948293245232156,34.04302298678577
243.6925521962729,-0.992015547150982,34.04651574708004
243.9425521962729,-0.9877168936965045,34.049453465686746
244.1925521962729,-0.9835377679405548,34.055164034732655
244.4425521962729,-0.978139427058616,34.05966674215167
244.6925521962729,-0.9721889606265363,34.062960029766344
244.9425521962729,-0.9670768285463038,34.06736476811254
245.1925521962729,-0.9622683358200411,34.07276580360059
245.4425521962729,-0.9566298663007239,34.0777390591519
245.6925521962729,-0.9519906954925568,34.08276970613721
245.9425521962729,-0.9479236916344731,34.08736545638357
246.1925521962729,-0.9444182009991422,34.09085475806322
246.4425521962729,-0.9413886671085401,34.09366265926569
246.6925521962729,-0.9371276904557233,34.09690529219222
246.9425521962729,-0.9331994202091921,34.10067538908799
247.1925521962729,-0.9300653742936809,34.1040366018405
247.4425521962729,-0.9275978862909954,34.10703530172198
247.6925521962729,-0.9248459396630057,34.109426389582765
247.9425521962729,-0.9209245346267979,34.11137204310608
248.1925521962729,-0.91752738760504,34.116162495857914
248.4425521962729,-0.9148324401756931,34.12007285950193
248.6925521962729,-0.9124726224761794,34.12270099466619
248.9425521962729,-0.9106241692668084,34.12486824848921
249.1925521962729,-0.9086999658033342,34.126368336622434
249.4425521962729,-0.9045591680584021,34.12909072172172
249.6925521962729,-0.9004539250492842,34.13258203111266
249.9425521962729,-0.898057824320976,34.13534933385056
250.1925521962729,-0.8962582400522026,34.137654985662955
250.4425521962729,-0.8928461565358498,34.139957287988324
250.6925521962729,-0.887977745166496,34.1412355485492
250.9425521962729,-0.8850139575002908,34.14397545445815
251.1925521962729,-0.8826823289150457,34.147161085298
251.4425521962729,-0.8795711430249462,34.14962980943135
251.6925521962729,-0.8754076684036057,34.15198989069657
251.9425521962729,-0.870057412467768,34.15526238299801
252.1925521962729,-0.864777752397025,34.15932688196966
252.4425521962729,-0.8613856333492828,34.16294859074182
252.6925521962729,-0.8583301324196054,34.166154251587
252.9425521962729,-0.8549386560962375,34.16936312955494
253.1925521962729,-0.8524421038917426,34.1723562362092
253.4425521962729,-0.8494475833300471,34.17468813067284
253.6925521962729,-0.8421231173886298,34.17658111549392
253.9425521962729,-0.8352323644939513,34.18021274378381
254.1925521962729,-0.8299353666159173,34.18492418210867
254.4425521962729,-0.8237876159024509,34.18878394212419
254.6925521962729,-0.8177554950528118,34.192251697577625
254.9425521962729,-0.8102743828602831,34.19512538421661
255.1925521962729,-0.8034397737486051,34.19935568780482
255.4425521962729,-0.7991030208954045,34.20272379764186
255.6925521962729,-0.7954950688767335,34.20349302205746
255.9425521962729,-0.789235229800917,34.20452795421015
256.1925521962729,-0.7804669248954469,34.207394332668414
256.4425521962729,-0.7720254505140307,34.21159935040119
256.6925521962729,-0.766200830897245,34.21589252296138
256.9425521962729,-0.7605386287140783,34.22018685689681
257.1925521962729,-0.7541135872947076,34.224631056561044
257.4425521962729,-0.7521302198599227,34.22792833128289
257.6925521962729,-0.749924124831751,34.229926862353125
257.9425521962729,-0.7436218346621359,34.23250686154265
258.1925521962729,-0.7375384325820288,34.235607730751624
258.4425521962729,-0.7352099659963092,34.23867398718365
258.6925521962729,-0.7342005477130233,34.24205615150906
258.9425521962729,-0.7339671643885383,34.24400954948521
259.1925521962729,-0.7276616492381323,34.2437181523546
259.4425521962729,-0.7185248895838616,34.24558756047802
259.6925521962729,-0.7117256271767086,34.24987615155042
259.9425521962729,-0.7073814394347713,34.25288541981541
260.1925521962729,-0.7049137923787688,34.25550049305647
260.4425521962729,-0.7024858958100463,34.25761691295758
260.6925521962729,-0.6916508749754843,34.25686117632648
260.9425521962729,-0.6810158679915965,34.25936868484134
261.1925521962729,-0.6790951803735235,34.265786027962484
261.4425521962729,-0.677651839995016,34.26695580742009
261.6925521962729,-0.6751106878976106,34.2680083368352
261.9425521962729,-0.6705434845602442,34.26838746134756
262.1925521962729,-0.6601029868043253,34.26941535687268
262.4425521962729,-0.6498747833879616,34.273411592510215
262.6925521962729,-0.6477960669156718,34.278736958263856
262.9425521962729,-0.6463123980665374,34.28110235807493
263.1925521962729,-0.64649504603498,34.28249247000251
263.4425521962729,-0.6388620928921385,34.2833141974054
263.6925521962729,-0.6286960534462631,34.28558087223352
263.9425521962729,-0.6263392599717305,34.290061090755664
264.1925521962729,-0.6252357457488492,34.2927039093674
264.4425521962729,-0.6239722784530015,34.29274552193351
264.6925521962729,-0.6228783776239144,34.29371160439958
264.9425521962729,-0.6162965829483289,34.29554184558502
265.1925521962729,-0.6074535718735492,34.29812467030557
265.4425521962729,-0.6051989724564241,34.30230920175887
265.6925521962729,-0.6036434669123626,34.305167919977926
265.9425521962729,-0.6039393262837212,34.30715643340579
266.1925521962729,-0.5989583654258451,34.306777796449644
266.4425521962729,-0.5905016917912768,34.307662849244885
266.6925521962729,-0.5860670011707071,34.31200917910093
266.9425521962729,-0.5840946104448502,34.314675722691405
267.1925521962729,-0.5817463906254254,34.31690153805745
267.4425521962729,-0.5803497664561149,34.3186355145649
267.6925521962729,-0.5745350260304103,34.31918970788495
267.9425521962729,-0.5654717089995225,34.320741968226834
268.1925521962729,-0.5617470410271788,34.32505077660167
268.4425521962729,-0.5604210093528319,34.327811171586745
268.6925521962729,-0.5596726099744551,34.32880368471616
268.9425521962729,-0.5546770607349953,34.32974901733618
269.1925521962729,-0.5469873939928991,34.331054573469004
269.4425521962729,-0.5422175497659133,34.33298777076868
269.6925521962729,-0.5404909214264637,34.33652759902037
269.9425521962729,-0.5393689794882486,34.3392579317129
270.1925521962729,-0.5355784500448029,34.33971559306369
270.4425521962729,-0.5331236502036454,34.3404171113352
270.6925521962729,-0.5302205062676444,34.34153726526573
270.9425521962729,-0.5215073730421773,34.341395144480686
271.1925521962729,-0.5157035420677281,34.34373268498085
271.4425521962729,-0.5103676255808713,34.34748388261381
271.6925521962729,-0.5027993480421146,34.35069179040976
271.9425521962729,-0.4973667823380469,34.3534184871209
272.1925521962729,-0.49677432797989884,34.35608638980776
272.4425521962729,-0.4954741530837767,34.35758034561016
272.6925521962729,-0.4935830307273559,34.357845060291744
272.9425521962729,-0.49255365810240614,34.357992005820385
273.1925521962729,-0.48821419460049964,34.359168545387064
273.4425521962729,-0.48100196669079553,34.36092906986527
273.6925521962729,-0.4771739915078822,34.362897810801904
273.9425521962729,-0.475250894875175,34.36665200915029
274.1925521962729,-0.4741734001569111,34.36855196895166
274.4425521962729,-0.4733513496889679,34.3691337575098
274.6925521962729,-0.472623967746366,34.36939364289316
274.9425521962729,-0.4705646864910515,34.3695674627826
275.1925521962729,-0.46560159417604924,34.37130756766613
275.4425521962729,-0.46223123033200353,34.3743905401743
275.6925521962729,-0.4605513119229123,34.377433686758124
275.9425521962729,-0.4584444825342004,34.37888725813988
276.1925521962729,-0.4562926336954797,34.37946483518513
276.4425521962729,-0.45562554290580226,34.380659566779435
276.6925521962729,-0.45471262627142456,34.38093807971079
276.9425521962729,-0.4556689918550789,34.38289994349062
277.1925521962729,-0.44949108432772983,34.382648336188915
277.4425521962729,-0.43975391417905263,34.38215356600234
