Depth,Temperature,Salinity
185.3629022624986,-1.5413646142474586,33.09172527644078
185.6129022624986,-1.5411536629215854,33.093136966168814
185.8629022624986,-1.5409306408003633,33.096334919764764
186.1129022624986,-1.5410231615146817,33.100426303516386
186.3629022624986,-1.5408444251708833,33.10288131992294
186.6129022624986,-1.5405075051817623,33.10375585245963
186.8629022624986,-1.5406147882399648,33.105025333730524
187.1129022624986,-1.5406550079607175,33.10619706988858
187.3629022624986,-1.5403308918295808,33.10689915093253
187.6129022624986,-1.540052733047789,33.10787335557473
187.8629022624986,-1.5400294906762333,33.10993472964991
188.1129022624986,-1.5399193075842468,33.112246758372955
188.3629022624986,-1.5397318924513956,33.11379227712199
188.6129022624986,-1.5396760567118086,33.114686476031814
188.8629022624986,-1.539567883526605,33.11560132571449
189.1129022624986,-1.5393772173741724,33.116989852277456
189.3629022624986,-1.538993429821802,33.11888163411664
189.6129022624986,-1.5388538312961932,33.12229564160782
189.8629022624986,-1.538698432653085,33.12526967943649
190.1129022624986,-1.5383086892145947,33.12795347096613
190.3629022624986,-1.5378612925619375,33.132093188932934
190.6129022624986,-1.5373628120714165,33.13620706062325
190.8629022624986,-1.5367934408052486,33.138668305296896
191.1129022624986,-1.5361596410552627,33.14072574639889
191.3629022624986,-1.5356605237508456,33.14421538227847
191.6129022624986,-1.5351229627009173,33.14864951159756
191.8629022624986,-1.5346233601491581,33.152596013772175
192.1129022624986,-1.5341148805130969,33.157299011539024
192.3629022624986,-1.5331034519202256,33.16337768828325
192.6129022624986,-1.531887781258671,33.16635486091913
192.8629022624986,-1.5310386275099181,33.169588224862274
193.1129022624986,-1.5304387904613934,33.17178439112738
193.3629022624986,-1.5299773004828594,33.174260669996954
193.6129022624986,-1.529345642529343,33.17859068573174
193.8629022624986,-1.5287419775417368,33.18271354630501
194.1129022624986,-1.528606547118533,33.18472876127829
194.3629022624986,-1.5283323407471787,33.18630901922066
194.6129022624986,-1.527920049865889,33.18835564007774
194.8629022624986,-1.5276320684735973,33.19017632191477
195.1129022624986,-1.5271488356610186,33.19198307510809
195.3629022624986,-1.5265678474993554,33.19528850365339
195.6129022624986,-1.5257614131416635,33.199218363785754
195.8629022624986,-1.5248375229497528,33.20179572904241
196.1129022624986,-1.5244781284383555,33.20436349484558
196.3629022624986,-1.5236495324755757,33.20847584935714
196.6129022624986,-1.522793562614807,33.21269025136477
196.8629022624986,-1.5219084259790137,33.21740062939673
197.1129022624986,-1.5211495096323167,33.220892979717796
197.3629022624986,-1.520451329427334,33.22447663343902
197.6129022624986,-1.519405637568338,33.22979325647052
197.8629022624986,-1.518169155301488,33.233984105503545
198.1129022624986,-1.5173738745493477,33.2373645858061
198.3629022624986,-1.5168538696231282,33.24114768770779
198.6129022624986,-1.5164584003033874,33.243976051754146
198.8629022624986,-1.5158643583196,33.246068512974645
199.1129022624986,-1.5152327910244177,33.248105119415015
199.3629022624986,-1.5146224131652615,33.2511276934169
199.6129022624986,-1.513537846674752,33.25553606075951
199.8629022624986,-1.5121353505268311,33.25945146827996
200.1129022624986,-1.5112819575690906,33.26355017197893
200.3629022624986,-1.5104630886896173,33.26716513698055
200.6129022624986,-1.5095896023794773,33.27006509012305
200.8629022624986,-1.5085971614606213,33.27259063384199
201.1129022624986,-1.5072927835181682,33.27626412595571
201.3629022624986,-1.5059787962781976,33.280522104850405
201.6129022624986,-1.5050258610995415,33.28302205877174
201.8629022624986,-1.5037920602348922,33.28755944253077
202.1129022624986,-1.502345911756642,33.29252794727319
202.3629022624986,-1.5007485717446052,33.29731440712408
202.6129022624986,-1.4994112432457134,33.30171175556641
202.8629022624986,-1.4978582562881386,33.305747985705075
203.1129022624986,-1.4963216025497943,33.30966863898729
203.3629022624986,-1.4956991070219399,33.31382094860759
203.6129022624986,-1.4947424004707786,33.31842503841371
203.8629022624986,-1.4934965402891287,33.32210635800989
204.1129022624986,-1.492455467087749,33.327233368724826
204.3629022624986,-1.4897124847189112,33.332733517935296
204.6129022624986,-1.4863536084419153,33.33794087267624
204.8629022624986,-1.4840032749720973,33.34304939987936
205.1129022624986,-1.4818720468784072,33.348244277533055
205.3629022624986,-1.4789638905809266,33.35365772905656
205.6129022624986,-1.4759626083301596,33.35818196359762
205.8629022624986,-1.47406453646595,33.36195955892418
206.1129022624986,-1.4721531305235231,33.36684935705482
206.3629022624986,-1.4685004293524364,33.373075136558555
206.6129022624986,-1.464175857513424,33.38204544240535
206.8629022624986,-1.4610340700212534,33.39160377621578
207.1129022624986,-1.4588873729344156,33.39837169191987
207.3629022624986,-1.4570120397425868,33.404480017647224
207.6129022624986,-1.4556157120119524,33.408061371325125
207.8629022624986,-1.4548129905607114,33.410460921156414
208.1129022624986,-1.454173254923166,33.4125243417335
208.3629022624986,-1.453044106620292,33.414754873165954
208.6129022624986,-1.45157883082911,33.417984705611666
208.8629022624986,-1.449529270219656,33.421589737062874
209.1129022624986,-1.446925507057351,33.42488133974435
209.3629022624986,-1.4448673607285125,33.42951619344839
209.6129022624986,-1.4415110601936938,33.43493589714507
209.8629022624986,-1.4377177069996023,33.43991218505101
210.1129022624986,-1.4332256285448446,33.44521796875274
210.3629022624986,-1.429812612198238,33.45148108003014
210.6129022624986,-1.4272283069322664,33.456810088653576
210.8629022624986,-1.4245719232317173,33.46091729691409
211.1129022624986,-1.4219534667667666,33.465758507457736
211.3629022624986,-1.418929809231042,33.470634293966675
211.6129022624986,-1.4169454604915832,33.474043531986176
211.8629022624986,-1.4144274718729175,33.4790562738093
212.1129022624986,-1.4111659140584663,33.485795503854916
212.3629022624986,-1.4071451608326409,33.49318692101692
212.6129022624986,-1.4047462409146316,33.497670618437425
212.8629022624986,-1.403791059595815,33.499791434030705
213.1129022624986,-1.4003299642112612,33.50543430115328
213.3629022624986,-1.3967541594885224,33.51246057955612
213.6129022624986,-1.3905739089895777,33.522453801312615
213.8629022624986,-1.3855510014505732,33.53129709472537
214.1129022624986,-1.3821220079910665,33.53840254114008
214.3629022624986,-1.3782235720641336,33.54491416226664
214.6129022624986,-1.3750695710261995,33.548894434205074
214.8629022624986,-1.3727813546204815,33.55280500304282
215.1129022624986,-1.368386440580527,33.55999719136739
215.3629022624986,-1.3623655276729387,33.56451901092991
215.6129022624986,-1.3577576292695002,33.56120411148758
215.8629022624986,-1.354818012537961,33.545571807180295
216.1129022624986,-1.3521203672968,33.53914880343291
216.3629022624986,-1.349973571938664,33.53973093492521
216.6129022624986,-1.3480698837014198,33.54029142733509
216.8629022624986,-1.3455885025959102,33.542796591963196
217.1129022624986,-1.3417108190568579,33.54822345280924
217.3629022624986,-1.3363316902378726,33.5548719745757
217.6129022624986,-1.332825550990969,33.55929348689222
217.8629022624986,-1.3304098847795622,33.56285179382546
218.1129022624986,-1.3277092336344964,33.56629977311142
218.3629022624986,-1.3264828313719583,33.56830183543505
218.6129022624986,-1.324210529263617,33.572349525951495
218.8629022624986,-1.318883916802657,33.5803085010659
219.1129022624986,-1.3121137374721648,33.59046792951771
219.3629022624986,-1.3052431165220486,33.60128146960391
219.6129022624986,-1.3019000667302947,33.606497451456654
219.8629022624986,-1.2993441907705694,33.61046107409673
220.1129022624986,-1.2977799776186412,33.613422791195156
220.3629022624986,-1.2950350518241631,33.616742005511526
220.6129022624986,-1.290947860120388,33.62107397724565
220.8629022624986,-1.2870330496255395,33.62572684062217
221.1129022624986,-1.283900800906373,33.6300390518506
221.3629022624986,-1.281563385295309,33.63354106860452
221.6129022624986,-1.2789398798404736,33.63651154647114
221.8629022624986,-1.2771399161055268,33.63866727265785
222.1129022624986,-1.272503811324284,33.6465665560024
222.3629022624986,-1.2657409034722162,33.65653224569888
222.6129022624986,-1.2610934392443482,33.663650915945475
222.8629022624986,-1.2575773328765567,33.670085227851445
223.1129022624986,-1.2536302734693552,33.67586001426352
223.3629022624986,-1.251795048538295,33.67895466256951
223.6129022624986,-1.2494293078296101,33.685323897704116
223.8629022624986,-1.2431823434673859,33.69354728916407
224.1129022624986,-1.238076141840612,33.70390405946546
224.3629022624986,-1.234757747594982,33.71193065810586
224.6129022624986,-1.2314205118853305,33.71943474609182
224.8629022624986,-1.2283560925449692,33.727506153475154
225.1129022624986,-1.225188669585625,33.73655581224219
225.3629022624986,-1.2203887660968078,33.74957244592113
225.6129022624986,-1.214969466285592,33.765444109574815
225.8629022624986,-1.2107306419772281,33.77923151865216
226.1129022624986,-1.2075294638666096,33.78863016438009
226.3629022624986,-1.2050769450520533,33.79610535126521
226.6129022624986,-1.2036499581774114,33.802445468035934
226.8629022624986,-1.2017339591441212,33.807891378339384
227.1129022624986,-1.199374147346389,33.81516566794711
227.3629022624986,-1.1978561380828416,33.822124883607806
227.6129022624986,-1.1966019492309607,33.82411728931334
227.8629022624986,-1.1953515444752298,33.82650891577404
228.1129022624986,-1.1934423000321668,33.82847991750859
228.3629022624986,-1.1920765805983333,33.83176718474273
228.6129022624986,-1.1882468627368783,33.83749118579379
228.8629022624986,-1.1820490322934527,33.84571795863176
229.1129022624986,-1.176720701841527,33.854166899329435
229.3629022624986,-1.1732323480548215,33.860093871094556
229.6129022624986,-1.170619782978934,33.863699386523656
229.8629022624986,-1.1688150734247706,33.86694455548053
230.1129022624986,-1.1662838996273408,33.87117641263146
230.3629022624986,-1.162029224358435,33.87684119158442
230.6129022624986,-1.1563164403656476,33.88486528716587
230.8629022624986,-1.1530896809531035,33.89038687771301
231.1129022624986,-1.1513009387516118,33.89280225052536
231.3629022624986,-1.148552628598429,33.895663415539865
231.6129022624986,-1.1460196144412802,33.89923794609351
231.8629022624986,-1.1440245339027642,33.90251781311471
232.1129022624986,-1.1409933412224447,33.907130465534635
232.3629022624986,-1.1368118583712556,33.9122095086713
232.6129022624986,-1.1329176814011526,33.91747572386991
232.8629022624986,-1.129743402300732,33.92178151033972
233.1129022624986,-1.1272807210464215,33.924570131690174
233.3629022624986,-1.1247518791910966,33.927005145934615
233.6129022624986,-1.1228724692333243,33.92979974213973
233.8629022624986,-1.1212129540008604,33.93279601256673
234.1129022624986,-1.114811825186551,33.937608137034005
234.3629022624986,-1.1069325782192492,33.94529997993654
234.6129022624986,-1.1005213092326407,33.95290868684619
234.8629022624986,-1.0966939324389076,33.9572041611966
235.1129022624986,-1.0923107557153873,33.96095727501373
235.3629022624986,-1.0883567670793872,33.96461113236404
235.6129022624986,-1.085534607470156,33.96911222031891
235.8629022624986,-1.0794080511173778,33.97563772341906
236.1129022624986,-1.0701343520778597,33.980286477796575
236.3629022624986,-1.061707746167747,33.986725791020184
236.6129022624986,-1.048807453211283,33.99717061758183
236.8629022624986,-1.0374580277106775,34.00608641400729
237.1129022624986,-1.0305290179766116,34.01059771627505
237.3629022624986,-1.0256688022295615,34.01519954094393
237.6129022624986,-1.0184171056471394,34.02121688381973
237.8629022624986,-1.009420812330356,34.0191374531452
238.1129022624986,-1.004624542479811,34.00507578464907
238.3629022624986,-1.002642688313617,33.99371482385929
238.6129022624986,-0.9993001473825511,33.9885023982833
238.8629022624986,-0.9964806562396266,33.987912324597886
239.1129022624986,-0.993108006654449,33.990415152678516
239.3629022624986,-0.9889681224432836,33.9931078049999
239.6129022624986,-0.9862990726111149,33.99436374535521
239.8629022624986,-0.9823234991928127,33.99726262774119
240.1129022624986,-0.9755832438759489,34.00334585420337
240.3629022624986,-0.9730131219913598,34.00747431666862
240.6129022624986,-0.9720374833308786,34.00864845389371
240.8629022624986,-0.9671823453861202,34.01235318754984
241.1129022624986,-0.958508331490015,34.01907998274528
241.3629022624986,-0.9543010574411084,34.02254489584881
241.6129022624986,-0.9536671089316823,34.0237441498037
241.8629022624986,-0.9475420367760948,34.027185733984915
242.1129022624986,-0.9385964579367826,34.0337812620132
242.3629022624986,-0.9341041956484383,34.04387639026493
242.6129022624986,-0.9278731741660137,34.06002479025093
242.8629022624986,-0.9244902369480592,34.08378198415993
243.1129022624986,-0.9170975269706594,34.10130288863438
243.3629022624986,-0.9074415714925519,34.106703017893125
243.6129022624986,-0.9014263424613731,34.10886504349627
243.8629022624986,-0.8941081421320887,34.11354790061148
244.1129022624986,-0.8853808226322426,34.11945345408396
244.3629022624986,-0.8814102729876937,34.123355657396125
244.6129022624986,-0.8790494846669645,34.124950645549674
244.8629022624986,-0.8744932766604856,34.12912493922716
245.1129022624986,-0.8674865841112044,34.1330443531499
245.3629022624986,-0.8632578323765824,34.13727325762206
245.6129022624986,-0.8551358325769105,34.14041763124437
245.8629022624986,-0.8440878779013897,34.143772103730214
246.1129022624986,-0.8349611982622758,34.14686210498746
246.3629022624986,-0.8299127745290306,34.148499157064734
246.6129022624986,-0.8287207786328965,34.14942486480196
246.8629022624986,-0.8258789947748693,34.151003395556145
247.1129022624986,-0.8155027696334203,34.1552196870697
247.3629022624986,-0.8050455993712912,34.16001806630816
247.6129022624986,-0.7996188672148123,34.164453684109716
247.8629022624986,-0.7929422920256298,34.170398779702886
248.1129022624986,-0.7874748607537843,34.175274844335114
248.3629022624986,-0.7858242546483691,34.17729382785795
248.6129022624986,-0.7841522992590114,34.177676300249814
248.8629022624986,-0.7820519387918929,34.17776462407431
249.1129022624986,-0.7792418300819213,34.180874352418265
249.3629022624986,-0.7692891096800586,34.189205200607354
249.6129022624986,-0.7640040270057683,34.1940480939692
249.8629022624986,-0.7623347732333858,34.19529518435515
250.1129022624986,-0.7608718357030344,34.19613495690825
250.3629022624986,-0.7598435195324649,34.19723642996622
250.6129022624986,-0.7525349087322546,34.20200412253947
250.8629022624986,-0.7418974809718876,34.208649027443435
251.1129022624986,-0.7394693732752404,34.21096370017674
251.3629022624986,-0.7374162367815718,34.212825654687286
251.6129022624986,-0.73635255347804,34.213159064307185
251.8629022624986,-0.735042405375128,34.21348936913371
252.1129022624986,-0.7332107205872247,34.21618379805006
252.3629022624986,-0.722506043065386,34.22203549951433
252.6129022624986,-0.7147587127463788,34.22664095814894
252.8629022624986,-0.7141175118623085,34.22764633159077
253.1129022624986,-0.7136005613901871,34.22869850008492
253.3629022624986,-0.7107589027681395,34.23217169706229
253.6129022624986,-0.6974024149143927,34.23635146440229
253.8629022624986,-0.6913654160680963,34.24053752755406
254.1129022624986,-0.6901239212966002,34.241571383114284
254.3629022624986,-0.6886181826788342,34.24121435278568
254.6129022624986,-0.6898569405074407,34.24391571235045
254.8629022624986,-0.6792109816514682,34.24765610151411
255.1129022624986,-0.6636702945176197,34.25154420292897
255.3629022624986,-0.660802331370756,34.25531848741082
255.6129022624986,-0.659027224229448,34.25551797150683
255.8629022624986,-0.6580508692994204,34.25579176291028
256.1129022624986,-0.6580091265457593,34.25822140233714
256.3629022624986,-0.6467951401413421,34.261607736195224
256.6129022624986,-0.6318156780139929,34.2665722333169
256.8629022624986,-0.6253528329420014,34.27044340706658
257.1129022624986,-0.6243353576930006,34.27152389774174
257.3629022624986,-0.6226024357770374,34.27104585431706
257.6129022624986,-0.6221444822427875,34.27114349361737
257.8629022624986,-0.6209866703112112,34.27312084562654
258.1129022624986,-0.6110371210023541,34.27677107857002
258.3629022624986,-0.5980969642681655,34.283363769420596
258.6129022624986,-0.5953823372992201,34.285803180998585
258.8629022624986,-0.5946908343801253,34.28594388144701
259.1129022624986,-0.5936436630994744,34.28630307020407
259.3629022624986,-0.5926053574259952,34.285954301623704
259.6129022624986,-0.5931989873806324,34.28668624620401
259.8629022624986,-0.587644640730675,34.29060479420581
260.1129022624986,-0.5728282918904595,34.29532368613472
260.3629022624986,-0.5706752648377758,34.29864341648474
260.6129022624986,-0.5686915567823245,34.29977169864942
260.8629022624986,-0.5671754580264956,34.300210796005835
261.1129022624986,-0.5657735518754988,34.30056366818651
261.3629022624986,-0.5630823926253896,34.30267872054936
261.6129022624986,-0.5548312558226439,34.30716092247195
261.8629022624986,-0.5475217451439147,34.31107963264936
262.1129022624986,-0.5466288405940333,34.31262309238996
262.3629022624986,-0.5452403483395722,34.313366266424445
262.6129022624986,-0.544678976250644,34.313373679864384
262.8629022624986,-0.5433132881543097,34.313008678293144
263.1129022624986,-0.543193799052337,34.3153281227744
263.3629022624986,-0.5314930611008366,34.32002125782077
263.6129022624986,-0.5226295407420817,34.324693636208835
263.8629022624986,-0.5213921099970197,34.32709051008438
264.1129022624986,-0.5196665215613279,34.32729893295466
264.3629022624986,-0.5191501511880501,34.32792301259498
264.6129022624986,-0.515994992424898,34.33026308414939
264.8629022624986,-0.50285620008874,34.332778745342004
265.1129022624986,-0.49569492049032843,34.33572382435148
265.3629022624986,-0.4937202742258882,34.33713196027478
265.6129022624986,-0.49251980234953213,34.33767955571985
265.8629022624986,-0.49166376253170685,34.337754391326264
266.1129022624986,-0.4908743282666463,34.337209454478426
266.3629022624986,-0.49051026370430106,34.33895211984657
266.6129022624986,-0.4819938666332057,34.34378767499431
266.8629022624986,-0.4618616584909496,34.347877396247526
267.1129022624986,-0.4580846034578004,34.352041350072895
267.3629022624986,-0.45624210512284624,34.35290732237465
267.6129022624986,-0.45451619416859823,34.35272680729682
267.8629022624986,-0.45312445238486976,34.35268437795062
268.1129022624986,-0.4537924625091809,34.35406713731531
268.3629022624986,-0.4471177821883344,34.356647586951404
268.6129022624986,-0.4318557150198653,34.36084581929317
268.8629022624986,-0.4233166157640788,34.366078250062394
269.1129022624986,-0.4209370868903926,34.36754347494573
269.3629022624986,-0.4193754674908883,34.367891806745114
269.6129022624986,-0.4181671069061311,34.3678525154718
269.8629022624986,-0.417373731212004,34.36785685595126
270.1129022624986,-0.4166441531764052,34.3675188073197
270.3629022624986,-0.4168913430469496,34.36820255311877
270.6129022624986,-0.41249633633523586,34.37044401955572
270.8629022624986,-0.39895580419697957,34.374275273473145
271.1129022624986,-0.385785954728734,34.37937760686556
271.3629022624986,-0.3814982158801599,34.38246467827372
271.6129022624986,-0.3784056831801426,34.38448694067734
271.8629022624986,-0.3767206490831341,34.38529980527998
272.1129022624986,-0.37596779737397273,34.385308358362074
272.3629022624986,-0.37473567209333297,34.38517320141317
272.6129022624986,-0.37320385272496004,34.3850583882185
272.8629022624986,-0.37288095895391005,34.385298062740816
273.1129022624986,-0.3706711788205394,34.386967014755896
273.3629022624986,-0.3608716619964171,34.39024026785927
273.6129022624986,-0.3492665137037596,34.39358867275171
273.8629022624986,-0.34630809430085246,34.39705932980885
274.1129022624986,-0.34497463913325294,34.39916345573671
