Depth,Temperature,Salinity
146.9251311903042,-1.4443347484098341,33.00299095214642
147.1751311903042,-1.4443123252750596,33.00604477321511
147.4251311903042,-1.4440701331278063,33.01156667514657
147.6751311903042,-1.4432633288364944,33.01524355161921
147.9251311903042,-1.4420612011950207,33.01831630425574
148.1751311903042,-1.4408833864848045,33.02522455546582
148.4251311903042,-1.4389985427874177,33.029908420936444
148.6751311903042,-1.4364442916215183,33.03747667314787
148.9251311903042,-1.4341048135139673,33.04732333450599
149.1751311903042,-1.4326354873688194,33.05179029995325
149.4251311903042,-1.431371649806912,33.05592750931798
149.6751311903042,-1.4304117668495222,33.061279316735074
149.9251311903042,-1.4299055415281292,33.065811359847146
150.1751311903042,-1.4296860849056476,33.06805273350921
150.4251311903042,-1.42949541746576,33.06982686776107
150.6751311903042,-1.4291542135289406,33.072425480551864
150.9251311903042,-1.4288814877211817,33.07585828167309
151.1751311903042,-1.4287913627000548,33.07933622159854
151.4251311903042,-1.4286858072657596,33.08263076624056
151.6751311903042,-1.4288567102749075,33.08752158604407
151.9251311903042,-1.428799888157647,33.092966877666704
152.1751311903042,-1.428562792338627,33.097855451732705
152.4251311903042,-1.4286600877253346,33.10273499921579
152.6751311903042,-1.42833677739812,33.107615932140526
152.9251311903042,-1.4281063132684721,33.110084994620955
153.1751311903042,-1.4282643891781277,33.113094353668394
153.4251311903042,-1.4285110565730201,33.12018201252725
153.6751311903042,-1.4287355008345777,33.12689515562101
153.9251311903042,-1.429174852339513,33.13162318142825
154.1751311903042,-1.4296784773686009,33.13600390577292
154.4251311903042,-1.4300744549222788,33.14200341684556
154.6751311903042,-1.4305100213826725,33.14913349460812
154.9251311903042,-1.4307767313482223,33.15462247763242
155.1751311903042,-1.4309331267427348,33.16001714090154
155.4251311903042,-1.430998472978397,33.16745352346388
155.6751311903042,-1.4306998264463962,33.176542828117675
155.9251311903042,-1.429826400282297,33.185746309256906
156.1751311903042,-1.4290488167350437,33.19053562088799
156.4251311903042,-1.4286031325451418,33.19400461453107
156.6751311903042,-1.427990933471212,33.201918883170926
156.9251311903042,-1.4269215551840444,33.20945763762724
157.1751311903042,-1.4259116356156813,33.2170820069541
157.4251311903042,-1.4250046700482433,33.22247419219445
157.6751311903042,-1.4239055804480305,33.22466204393742
157.9251311903042,-1.4226588963127733,33.22983213794715
158.1751311903042,-1.4212183029555199,33.238521535975345
158.4251311903042,-1.4193436380520361,33.24830235077306
158.6751311903042,-1.417478535861047,33.256354823047516
158.9251311903042,-1.4164115263171648,33.262579833935064
159.1751311903042,-1.4148943521341615,33.272426444030685
159.4251311903042,-1.4130995750827193,33.2825644811936
159.6751311903042,-1.4113237100760354,33.29316756220075
159.9251311903042,-1.409473856596345,33.30649475787618
160.1751311903042,-1.4082508204695683,33.311984670961635
160.4251311903042,-1.4069962553673456,33.31705605610292
160.6751311903042,-1.4059047172386803,33.32325703446468
160.9251311903042,-1.4049780939656649,33.327980657721376
161.1751311903042,-1.4027618206435584,33.33756590808003
161.4251311903042,-1.4012516179635084,33.3470890851848
161.6751311903042,-1.4002654216403314,33.35279380357203
161.9251311903042,-1.399287699770269,33.356180601127654
162.1751311903042,-1.398859804004964,33.361218120773366
162.4251311903042,-1.39673057955749,33.36862417593227
162.6751311903042,-1.394697332340673,33.37426561287316
162.9251311903042,-1.3920393084260287,33.38084591254287
163.1751311903042,-1.3863970490152895,33.39302878945391
163.4251311903042,-1.3818987714594997,33.401380917262394
163.6751311903042,-1.378770652199446,33.40674482377114
163.9251311903042,-1.375662983392671,33.41340070453877
164.1751311903042,-1.372428016704381,33.42169603009445
164.4251311903042,-1.3699811792671814,33.428416008025486
164.6751311903042,-1.3665482953620498,33.436737761954355
164.9251311903042,-1.3632782551854645,33.443340154006115
165.1751311903042,-1.3605634555713328,33.44846914778828
165.4251311903042,-1.35658532735497,33.458848208400376
165.6751311903042,-1.353308826618462,33.469674426143676
165.9251311903042,-1.3509239428149011,33.47650422342161
166.1751311903042,-1.3484019570412202,33.48267945703996
166.4251311903042,-1.3453013993347598,33.49198752423658
166.6751311903042,-1.3425367747708308,33.497712255446196
166.9251311903042,-1.3403992893564576,33.50360443598544
167.1751311903042,-1.338164028198057,33.50903064917339
167.4251311903042,-1.335240830937385,33.51333253769001
167.6751311903042,-1.3322516014933465,33.52247357117186
167.9251311903042,-1.330060057046986,33.53031983669503
168.1751311903042,-1.328520198757001,33.534449287047394
168.4251311903042,-1.3266909218707277,33.53815741786579
168.6751311903042,-1.323933213778235,33.54501576541575
168.9251311903042,-1.3211071086719262,33.5532360420713
169.1751311903042,-1.3189478515795499,33.56100330677351
169.4251311903042,-1.317215448249505,33.56705503976219
169.6751311903042,-1.3154240085944182,33.57104847911194
169.9251311903042,-1.313968837620954,33.57441602139187
170.1751311903042,-1.3122503197195687,33.579001943742135
170.4251311903042,-1.310395189188042,33.58318445579974
170.6751311903042,-1.3088190601205822,33.58599862392325
170.9251311903042,-1.30735669290059,33.58987739528874
171.1751311903042,-1.3063244553852793,33.592429505351
171.4251311903042,-1.3041880459514716,33.59795058619013
171.6751311903042,-1.3013282599370446,33.605179194766116
171.9251311903042,-1.2996432443148254,33.60827358207136
172.1751311903042,-1.2968589268453368,33.6157479329301
172.4251311903042,-1.2945535013975606,33.6210386570789
172.6751311903042,-1.2930822603175884,33.62278566451723
172.9251311903042,-1.290860597303643,33.62696774540827
173.1751311903042,-1.287817532089574,33.63344392610048
173.4251311903042,-1.2846223520033926,33.641994672488444
173.6751311903042,-1.2813206405122322,33.64769649775438
173.9251311903042,-1.277557290726234,33.65140175536494
174.1751311903042,-1.2736301546905962,33.66138429334353
174.4251311903042,-1.2709320278982101,33.6671805818038
174.6751311903042,-1.2671976566051344,33.673180007900946
174.9251311903042,-1.2618509720967162,33.68254129354057
175.1751311903042,-1.2572448697770775,33.68995213639182
175.4251311903042,-1.2527666452243098,33.69951335679604
175.6751311903042,-1.2494106280201431,33.70686777250981
175.9251311903042,-1.2461905901672343,33.712045055864756
176.1751311903042,-1.2418944420819946,33.71891170582486
176.4251311903042,-1.2379401794635794,33.72596252002066
176.6751311903042,-1.2321415586082198,33.73174825141356
176.9251311903042,-1.2256053720446078,33.74121187692746
177.1751311903042,-1.220691241858969,33.752518024170485
177.4251311903042,-1.2167842237895807,33.75794198284184
177.6751311903042,-1.2106092238329742,33.76695591826414
177.9251311903042,-1.205879630438629,33.77488054157938
178.1751311903042,-1.2029760717398585,33.7805815138173
178.4251311903042,-1.1990424899215981,33.78797078178958
178.6751311903042,-1.1959236772891708,33.792272956411985
178.9251311903042,-1.191008666379483,33.79640538708336
179.1751311903042,-1.18508941855009,33.80297142607336
179.4251311903042,-1.1808596247153877,33.81032568220578
179.6751311903042,-1.177655537256578,33.815443234765795
179.9251311903042,-1.1732775809937477,33.821294202604236
180.1751311903042,-1.1680088388694614,33.829108956661074
180.4251311903042,-1.1633848212154003,33.837869840800444
180.6751311903042,-1.1601748221823673,33.84418657398028
180.9251311903042,-1.1575971548863309,33.843272937835174
181.1751311903042,-1.1516556725078257,33.8517548490374
181.4251311903042,-1.1439843697987926,33.86460699504891
181.6751311903042,-1.1381309706107121,33.868134843923514
181.9251311903042,-1.1308033108212259,33.879259248467925
182.1751311903042,-1.124624930355124,33.88944401129976
182.4251311903042,-1.1195150378152567,33.89541206693762
182.6751311903042,-1.114531326004806,33.90073977524778
182.9251311903042,-1.1110964262419363,33.905374538678664
183.1751311903042,-1.1074755216557222,33.909681231267434
183.4251311903042,-1.1033361803412896,33.9135950703627
183.6751311903042,-1.0992536059935727,33.91918464935467
183.9251311903042,-1.095725555574893,33.92645775240388
184.1751311903042,-1.0931939210938506,33.92771833762031
184.4251311903042,-1.0905501511481486,33.93140844047384
184.6751311903042,-1.0882238550622794,33.935859645831364
184.9251311903042,-1.086626171770455,33.935947814532256
185.1751311903042,-1.084353477488105,33.93884193281823
185.4251311903042,-1.0829649719767909,33.941467826256805
185.6751311903042,-1.0809499280702135,33.94317933794263
185.9251311903042,-1.0773617598753285,33.9462867810793
186.1751311903042,-1.0739656084128746,33.95126489445433
186.4251311903042,-1.0709234073303815,33.95448493314526
186.6751311903042,-1.0684024470597424,33.95777323616496
186.9251311903042,-1.0659378653594973,33.96231953873385
187.1751311903042,-1.063162932761198,33.96598149161658
187.4251311903042,-1.0608634361158882,33.96743833847244
187.6751311903042,-1.0578462816439378,33.97169772127639
187.9251311903042,-1.0548701910643226,33.97577648743691
188.1751311903042,-1.0525399450358284,33.97745315969835
188.4251311903042,-1.049241261247893,33.9827455211846
188.6751311903042,-1.045879991583781,33.98679200323497
188.9251311903042,-1.0427766391773532,33.989295379045224
189.1751311903042,-1.0396610968655897,33.99338209909709
189.4251311903042,-1.036470461497929,33.99919165800363
189.6751311903042,-1.0335224193089627,34.0015656359469
189.9251311903042,-1.0309637427968692,34.00246880088358
190.1751311903042,-1.0286139433715147,34.00588759504288
190.4251311903042,-1.0261160815990944,34.01121127550154
190.6751311903042,-1.023404805581446,34.01325097807458
190.9251311903042,-1.021353468641942,34.01598748561314
191.1751311903042,-1.0196572360603824,34.01835100642728
191.4251311903042,-1.0178830652444801,34.01906270682801
191.6751311903042,-1.0164949719329148,34.021651838149516
191.9251311903042,-1.015245212694977,34.023527381778685
192.1751311903042,-1.0141034072113089,34.02434030452513
192.4251311903042,-1.0129975753917213,34.0251263717217
192.6751311903042,-1.01174471660064,34.026352445429936
192.9251311903042,-1.01045324772429,34.0281183342355
193.1751311903042,-1.009108539394286,34.030879472559995
193.4251311903042,-1.0058256174654165,34.035014820136844
193.6751311903042,-1.0006854595069976,34.04024859828476
193.9251311903042,-0.9973989988583835,34.04547781686248
194.1751311903042,-0.9930463180362208,34.04981795355458
194.4251311903042,-0.988568400966892,34.0554642684175
194.6751311903042,-0.9853758516125043,34.06090856055952
194.9251311903042,-0.9824103173940056,34.06249121479948
195.1751311903042,-0.9796529540442489,34.065009697862756
195.4251311903042,-0.9768373447133124,34.067872792937685
195.6751311903042,-0.9739047497300503,34.071172316501944
195.9251311903042,-0.9707104959797725,34.07547875823754
196.1751311903042,-0.9671217520505773,34.078857297306456
196.4251311903042,-0.9649933905786001,34.08185989510967
196.6751311903042,-0.9637692962044201,34.083949016707436
196.9251311903042,-0.9620363877037348,34.085389440995826
197.1751311903042,-0.9596425914844882,34.087984596738735
197.4251311903042,-0.9573531691910924,34.09181997453323
197.6751311903042,-0.955129220311782,34.09428638746573
197.9251311903042,-0.952452917817325,34.096654883784026
198.1751311903042,-0.9495241316341855,34.10083150043453
198.4251311903042,-0.9474343176094485,34.103770855315844
198.6751311903042,-0.9449892151658084,34.10698962978576
198.9251311903042,-0.9408880914186575,34.11323678338098
199.1751311903042,-0.935736193075127,34.12033674535907
199.4251311903042,-0.9314891031752242,34.12353855872052
199.6751311903042,-0.928182652473494,34.12750861752177
199.9251311903042,-0.9258189712106519,34.13066066033193
200.1751311903042,-0.921912713263422,34.13339732371811
200.4251311903042,-0.91530940239076,34.138852360198776
200.6751311903042,-0.9109119769500517,34.145291354228114
200.9251311903042,-0.906743297372967,34.15086725172725
201.1751311903042,-0.9021630440600723,34.15522128515285
201.4251311903042,-0.8982031202318527,34.15871717803279
201.6751311903042,-0.8946829626887486,34.16210600216384
201.9251311903042,-0.8913857128096129,34.16743319003426
202.1751311903042,-0.8885993976556129,34.17032994079001
202.4251311903042,-0.8853695142036012,34.17188752313877
202.6751311903042,-0.8808812348960874,34.177183350658304
202.9251311903042,-0.877609028506376,34.18032731356438
203.1751311903042,-0.8743288175481407,34.18333447019615
203.4251311903042,-0.8707580683700439,34.187206623720904
203.6751311903042,-0.8680812122521501,34.18965017221491
203.9251311903042,-0.8663003807062903,34.18994769571492
204.1751311903042,-0.8639821503826928,34.191735581883705
204.4251311903042,-0.8620508241910794,34.19389280813111
204.6751311903042,-0.8605203715756627,34.19526791711971
204.9251311903042,-0.8580091470190797,34.1974904150768
205.1751311903042,-0.8566942003816166,34.19918133337753
205.4251311903042,-0.8549379701013625,34.20042559702091
205.6751311903042,-0.8526470718772944,34.20274061576005
205.9251311903042,-0.851014078995074,34.20616933822174
206.1751311903042,-0.8487011936527651,34.20794864284008
206.4251311903042,-0.8465992718415504,34.20914679321645
206.6751311903042,-0.8451325790255254,34.211232428480095
206.9251311903042,-0.844038909207514,34.21337022098052
207.1751311903042,-0.8430110719258971,34.21380215532974
207.4251311903042,-0.8416214180501496,34.214564788510664
207.6751311903042,-0.8402919273896341,34.21614141106925
207.9251311903042,-0.8394334716560988,34.21738937965686
208.1751311903042,-0.8384727197084331,34.21764087891669
208.4251311903042,-0.8363256377738431,34.218298264335175
208.6751311903042,-0.8349541153678762,34.220395634815446
208.9251311903042,-0.833597571063363,34.222221356109586
209.1751311903042,-0.8312050569004785,34.22289610908167
209.4251311903042,-0.8289058129117797,34.22477240967116
209.6751311903042,-0.82520831279764,34.228360734799615
209.9251311903042,-0.8221780724634606,34.23112582569718
210.1751311903042,-0.8206444694813848,34.231522240433485
210.4251311903042,-0.8183142995242533,34.23170539513359
210.6751311903042,-0.8144994371917886,34.235153011405295
210.9251311903042,-0.8107228436647677,34.23715058886597
211.1751311903042,-0.8071950644905179,34.23926271992836
211.4251311903042,-0.8035142056271858,34.24446767651833
211.6751311903042,-0.8006208611116793,34.24686553317006
211.9251311903042,-0.7975986865111273,34.24864006523828
212.1751311903042,-0.7945421139486472,34.25160440237731
212.4251311903042,-0.7917304173372912,34.254392966744184
212.6751311903042,-0.7889277604697222,34.25549639368584
212.9251311903042,-0.7869380138991536,34.25758966928372
213.1751311903042,-0.7853426217744583,34.258075569726216
213.4251311903042,-0.7830024533624339,34.2584207730248
213.6751311903042,-0.7796011201626629,34.261822438638724
213.9251311903042,-0.7764443381935947,34.26414363880003
214.1751311903042,-0.7740884113605527,34.26597360527573
214.4251311903042,-0.7721795478403359,34.267477838697324
214.6751311903042,-0.7702066763537787,34.268631279254194
214.9251311903042,-0.7680259834544447,34.2703308756187
215.1751311903042,-0.7655975566994001,34.271965074164115
215.4251311903042,-0.7628042141029373,34.27272975102192
215.6751311903042,-0.7595344850373664,34.27431654571616
215.9251311903042,-0.7559010584020054,34.278005915064206
216.1751311903042,-0.7524237147205426,34.2807666700687
216.4251311903042,-0.7497953987276615,34.28251238964117
216.6751311903042,-0.7477727266055558,34.283175468213074
216.9251311903042,-0.7457128419482011,34.28331682448786
217.1751311903042,-0.7431164618678388,34.284425148994565
217.4251311903042,-0.7392660715381442,34.28593989097031
217.6751311903042,-0.734970880980849,34.287756605441025
217.9251311903042,-0.7314070393512092,34.2902075707837
218.1751311903042,-0.7286069637599127,34.292467809901545
218.4251311903042,-0.7253602626753632,34.292610237464814
218.6751311903042,-0.7222448179082877,34.294355449421985
218.9251311903042,-0.7189847571327864,34.296968521970335
219.1751311903042,-0.7160650407415262,34.29787253082017
219.4251311903042,-0.7144841068060486,34.29811439733193
219.6751311903042,-0.7104748014655319,34.29961002093492
219.9251311903042,-0.7066561587474253,34.30075720546586
220.1751311903042,-0.7043664526260165,34.301396086315656
220.4251311903042,-0.7013967822888606,34.30274267373558
220.6751311903042,-0.6978546622427481,34.30341364420114
220.9251311903042,-0.6945026891101833,34.306123215450796
221.1751311903042,-0.6908807814138092,34.308376637263414
221.4251311903042,-0.6869701030187609,34.30790052874624
221.6751311903042,-0.6842006505915688,34.30895051781142
221.9251311903042,-0.6817249850288286,34.31229822947721
222.1751311903042,-0.6777997863191416,34.31558269963359
222.4251311903042,-0.6738532622720009,34.31714312836756
222.6751311903042,-0.671929469293732,34.318104726976095
222.9251311903042,-0.6683242997563391,34.320564922387334
223.1751311903042,-0.6640479449098555,34.32233266272719
223.4251311903042,-0.6609941761980473,34.32405727477056
223.6751311903042,-0.6591981705557063,34.3260197422847
223.9251311903042,-0.6569512275783951,34.325504724410344
224.1751311903042,-0.6527683134881939,34.32698637838038
224.4251311903042,-0.6480213079092729,34.32957848146975
224.6751311903042,-0.6445226084798025,34.33096680783563
224.9251311903042,-0.6415583113485489,34.33182137696604
225.1751311903042,-0.6359275178423963,34.33401620760481
225.4251311903042,-0.6296148039412564,34.336895885466554
225.6751311903042,-0.6245688410989109,34.339042969218006
225.9251311903042,-0.6203755038427378,34.3406726477489
226.1751311903042,-0.6160838345586599,34.34351929434999
226.4251311903042,-0.6133291049950429,34.34590098516923
226.6751311903042,-0.6110074987419541,34.34655519045843
226.9251311903042,-0.6080023376177622,34.347369766419504
227.1751311903042,-0.6052101365633963,34.35005289948549
227.4251311903042,-0.6028253204547027,34.34983836218588
227.6751311903042,-0.600844958445552,34.350841625857726
227.9251311903042,-0.5984665214497855,34.35343582854437
228.1751311903042,-0.5956873895494735,34.35404485590833
228.4251311903042,-0.5942949471197356,34.354047655317466
228.6751311903042,-0.5925289471088993,34.35454451617817
228.9251311903042,-0.5901961256391545,34.35595530767681
229.1751311903042,-0.5879184287752393,34.35716615754662
229.4251311903042,-0.5853069733491277,34.357644189278474
229.6751311903042,-0.5822409216496197,34.36135781003663
229.9251311903042,-0.5805122019872072,34.362832600233126
230.1751311903042,-0.5789529546752578,34.361822224241855
230.4251311903042,-0.575373833491677,34.36253568655092
230.6751311903042,-0.5713225565017643,34.36297221310231
230.9251311903042,-0.5665960193465739,34.36494654439698
231.1751311903042,-0.5604441503460892,34.36884723817814
231.4251311903042,-0.5542412962563289,34.37196457735789
231.6751311903042,-0.5495645511935345,34.37283964048921
231.9251311903042,-0.5427098753835056,34.376766750106
232.1751311903042,-0.5371508419805633,34.379331391265964
232.4251311903042,-0.5340916300576489,34.37958766657663
232.6751311903042,-0.5310291237511333,34.38065396118108
232.9251311903042,-0.5273133641536718,34.38163235433908
233.1751311903042,-0.521839028616372,34.38514538868846
233.4251311903042,-0.5155989578959664,34.387758069593566
233.6751311903042,-0.5101491716597254,34.388201557304036
233.9251311903042,-0.5058671573306274,34.39091399632339
234.1751311903042,-0.5027922832285118,34.392996715993455
234.4251311903042,-0.5007200079393543,34.39238866505891
234.6751311903042,-0.4988079130836911,34.39171790416866
234.9251311903042,-0.49622038979309546,34.39336740999017
235.1751311903042,-0.4930541919857194,34.394208813941916
235.4251311903042,-0.489456712259431,34.39613511399008
235.6751311903042,-0.48683476961316274,34.39740695210203
