Depth,Temperature,Salinity
190.97761625061338,-1.537270399952115,33.13191439690933
191.22761625061338,-1.5372118248076017,33.13431332440783
191.47761625061338,-1.536909574748282,33.13666435338951
191.72761625061338,-1.5367045403997026,33.14020662739632
191.97761625061338,-1.536433161541746,33.14383390495635
192.22761625061338,-1.5358292882419429,33.146407360273855
192.47761625061338,-1.535157856798007,33.14982341845335
192.72761625061338,-1.5343863912508804,33.15416112690847
192.97761625061338,-1.5328183013408723,33.156995206993564
193.22761625061338,-1.5312508540078935,33.159042243560094
193.47761625061338,-1.530358525853643,33.161643200679194
193.72761625061338,-1.529229298508705,33.16357584640769
193.97761625061338,-1.5283499990143128,33.16615055523608
194.22761625061338,-1.5274099644685346,33.16840804026751
194.47761625061338,-1.5262364449323353,33.170688369234284
194.72761625061338,-1.5253334137581918,33.17408914277099
194.97761625061338,-1.5251381229870453,33.17802949813215
195.22761625061338,-1.5250922775859685,33.18128710523114
195.47761625061338,-1.5256622133280269,33.184715609671706
195.72761625061338,-1.5261968844819989,33.18885089255194
195.97761625061338,-1.5258883911142753,33.19248994447126
196.22761625061338,-1.5249807116950629,33.19451180295081
196.47761625061338,-1.5233549734232983,33.19677442035526
196.72761625061338,-1.520877745362958,33.200117351790055
196.97761625061338,-1.518723836075603,33.203699830377545
197.22761625061338,-1.5170998241202462,33.20677676605587
197.47761625061338,-1.5149843227549584,33.209690610839424
197.72761625061338,-1.5127057579432874,33.21306708189726
197.97761625061338,-1.510452548519615,33.21723432435913
198.22761625061338,-1.509113861434094,33.22182162758926
198.47761625061338,-1.508790804302571,33.2257889049779
198.72761625061338,-1.5091225861911515,33.22940311011627
198.97761625061338,-1.5102595034146333,33.23414690110966
199.22761625061338,-1.511281807557301,33.23798094398284
199.47761625061338,-1.5114475392549616,33.2406141904973
199.72761625061338,-1.5111344816951973,33.243867192881396
199.97761625061338,-1.5107519163595253,33.24837585802985
200.22761625061338,-1.510150347509769,33.25225779697989
200.47761625061338,-1.5097247639552627,33.254365814672504
200.72761625061338,-1.5094338900900004,33.256477101519536
200.97761625061338,-1.5091743261441808,33.25889337337383
201.22761625061338,-1.5086643814202636,33.26192825651423
201.47761625061338,-1.5077946782213532,33.26615783236791
201.72761625061338,-1.507085338816274,33.269642104088575
201.97761625061338,-1.5057502193959706,33.2731626379259
202.22761625061338,-1.5048735975128056,33.276128184724115
202.47761625061338,-1.5041433850541062,33.278916966408076
202.72761625061338,-1.5026646888995487,33.28248379378685
202.97761625061338,-1.502181385182893,33.28540599305799
203.22761625061338,-1.5012089169954157,33.2880241467733
203.47761625061338,-1.5003698338628633,33.29061381309286
203.72761625061338,-1.4996538771469314,33.29376861483863
203.97761625061338,-1.4982124910072758,33.297493607981416
204.22761625061338,-1.4965600565965564,33.30128580555465
204.47761625061338,-1.4954067407098361,33.30701784351011
204.72761625061338,-1.4945389987981381,33.311528695407986
204.97761625061338,-1.493338135882299,33.314752654661774
205.22761625061338,-1.4919265509767412,33.31850804767411
205.47761625061338,-1.4908603470252213,33.321800367350555
205.72761625061338,-1.4894891204490437,33.323886995008934
205.97761625061338,-1.4883153065373917,33.32752496838757
206.22761625061338,-1.4870340129607618,33.33191744121075
206.47761625061338,-1.4853411598996167,33.33558439919383
206.72761625061338,-1.4836210626656519,33.33919857485343
206.97761625061338,-1.481902347661849,33.342914613682005
207.22761625061338,-1.4802768605814836,33.34745619911789
207.47761625061338,-1.4783355131964802,33.35132213221321
207.72761625061338,-1.4763379381540136,33.35466728004985
207.97761625061338,-1.473688627919631,33.35862137275128
208.22761625061338,-1.468211189722689,33.36175765319395
208.47761625061338,-1.463184384361911,33.36596780260452
208.72761625061338,-1.4589969081111016,33.373126975247835
208.97761625061338,-1.4560008711010437,33.37961594080117
209.22761625061338,-1.4537645661496732,33.38349532364072
209.47761625061338,-1.449978764765876,33.38936797721458
209.72761625061338,-1.4468160825572063,33.395201928666545
209.97761625061338,-1.4443395086105313,33.400922036737335
210.22761625061338,-1.442610964635383,33.405487254795815
210.47761625061338,-1.4415639673165404,33.4090719823218
210.72761625061338,-1.4405536861207793,33.41329950116811
210.97761625061338,-1.4396530714315252,33.41651468427121
211.22761625061338,-1.4378872115664099,33.41957102885498
211.47761625061338,-1.436001467389446,33.422814383004216
211.72761625061338,-1.434252058394524,33.42675788349895
211.97761625061338,-1.4318730034684566,33.43131283371947
212.22761625061338,-1.4289269708635015,33.435444370533716
212.47761625061338,-1.4259000191826514,33.44155912018846
212.72761625061338,-1.423834542818765,33.447270212425146
212.97761625061338,-1.4225769378382624,33.45151149974811
213.22761625061338,-1.421158319119458,33.455161690715784
213.47761625061338,-1.419208895243768,33.45863552289582
213.72761625061338,-1.4172010640172275,33.46245902298548
213.97761625061338,-1.4155815441781359,33.46537797006051
214.22761625061338,-1.4145251525507516,33.46933306603794
214.47761625061338,-1.4122041887565893,33.47403475389494
214.72761625061338,-1.4076571137049754,33.47808776564952
214.97761625061338,-1.4041121100927485,33.48427917550479
215.22761625061338,-1.401923282599292,33.48975714306149
215.47761625061338,-1.4003988808999446,33.49356270429569
215.72761625061338,-1.3987304846234772,33.496871202911905
215.97761625061338,-1.3968339011960145,33.50082508716374
216.22761625061338,-1.3953169521915858,33.50508951017712
216.47761625061338,-1.3938499033129113,33.50816981906195
216.72761625061338,-1.3923358828887125,33.51166032540771
216.97761625061338,-1.3899621047334738,33.5157215404324
217.22761625061338,-1.3867985369510343,33.52025575913661
217.47761625061338,-1.3840623081544177,33.52537499444216
217.72761625061338,-1.3816645440623845,33.52902811894693
217.97761625061338,-1.3793280464994193,33.53344615698772
218.22761625061338,-1.3772672044618672,33.53733268785717
218.47761625061338,-1.3748477517676423,33.541383636707344
218.72761625061338,-1.3720982350330315,33.54676856927094
218.97761625061338,-1.3703468296103274,33.55080827903743
219.22761625061338,-1.367198545846184,33.55619769524431
219.47761625061338,-1.36317163026553,33.56186322067863
219.72761625061338,-1.3583428245489577,33.567887831150834
219.97761625061338,-1.3531404788474017,33.5750928372505
220.22761625061338,-1.3492352304379596,33.58224747026975
220.47761625061338,-1.345935048438396,33.58831554851257
220.72761625061338,-1.3411906653780374,33.59523774754107
220.97761625061338,-1.3355210471453336,33.60267699137995
221.22761625061338,-1.3312209784767564,33.60973174712377
221.47761625061338,-1.329335621628049,33.61572540626181
221.72761625061338,-1.3280052641275277,33.619407873023135
221.97761625061338,-1.32478501386192,33.623277443731304
222.22761625061338,-1.3208613779374376,33.62831076630765
222.47761625061338,-1.3163287937974752,33.63492243163197
222.72761625061338,-1.311689892045949,33.6422622440902
222.97761625061338,-1.3092792725431264,33.6480988151924
223.22761625061338,-1.3063932296703933,33.65293867409316
223.47761625061338,-1.303245820695968,33.6564411974375
223.72761625061338,-1.300016893682379,33.66083767471564
223.97761625061338,-1.2973613374925244,33.665745194460065
224.22761625061338,-1.2955599123003132,33.66910636896934
224.47761625061338,-1.2920823997757107,33.674480955782386
224.72761625061338,-1.2892528506354064,33.678008543678374
224.97761625061338,-1.2859237544853395,33.68184217057681
225.22761625061338,-1.2820634707738057,33.68706831198228
225.47761625061338,-1.2789950421925453,33.691441387221595
225.72761625061338,-1.2758207110232374,33.69514153271233
225.97761625061338,-1.2735030866195107,33.699035693228026
226.22761625061338,-1.272100548286607,33.70228549387028
226.47761625061338,-1.270179709126157,33.70539096038371
226.72761625061338,-1.2665662073142585,33.70939019140027
226.97761625061338,-1.2615734484580707,33.71416419784127
227.22761625061338,-1.2557072755584975,33.719930433147695
227.47761625061338,-1.2479770339786667,33.728847778574284
227.72761625061338,-1.242742869917311,33.73675543212194
227.97761625061338,-1.2390002869960834,33.74344680102478
228.22761625061338,-1.2347313933545392,33.749918681769394
228.47761625061338,-1.2321796183016611,33.75416640319187
228.72761625061338,-1.2275925417016567,33.75995398384521
228.97761625061338,-1.2211220336322348,33.76630310159894
229.22761625061338,-1.2150481776059745,33.77340481569539
229.47761625061338,-1.2110479290395904,33.779531426211726
229.72761625061338,-1.2083455927687246,33.78306518000145
229.97761625061338,-1.2048057288194187,33.787173837078626
230.22761625061338,-1.2018381283167892,33.790935278896455
230.47761625061338,-1.1991909849052091,33.794921195328136
230.72761625061338,-1.1955452259284103,33.7991685660761
230.97761625061338,-1.190363476342173,33.80449926185284
231.22761625061338,-1.1850928968733718,33.811402908297595
231.47761625061338,-1.1818701819270097,33.81650935004127
231.72761625061338,-1.178155545991795,33.82187771465858
231.97761625061338,-1.1742961297939751,33.826589726804244
232.22761625061338,-1.1717015362586716,33.83068113823071
232.47761625061338,-1.169039392107184,33.83492361095854
232.72761625061338,-1.1638674398634454,33.83905979451015
232.97761625061338,-1.1579914714411665,33.846075495890126
233.22761625061338,-1.151969499034493,33.8537557295007
233.47761625061338,-1.1487727810198582,33.86221310496861
233.72761625061338,-1.1484661614961031,33.86965660187052
233.97761625061338,-1.1481832378540944,33.87381890645499
234.22761625061338,-1.148328047144299,33.8784967035243
234.47761625061338,-1.147941146987339,33.88308373978648
234.72761625061338,-1.1438450416395076,33.88704295334099
234.97761625061338,-1.1368387859298237,33.89135628020799
235.22761625061338,-1.1305244923956836,33.89702682028012
235.47761625061338,-1.1261686276201268,33.90311690777636
235.72761625061338,-1.1222037456431428,33.907349038037005
235.97761625061338,-1.1186429718079727,33.91136599250299
236.22761625061338,-1.114577767409043,33.91534577850647
236.47761625061338,-1.111215452045446,33.919631601031774
236.72761625061338,-1.1086677959491629,33.92425651638076
236.97761625061338,-1.1030009931156666,33.92787963934312
237.22761625061338,-1.0976179535229853,33.93373135410744
237.47761625061338,-1.093248403455592,33.93982015742011
237.72761625061338,-1.090284296113385,33.94419070271252
237.97761625061338,-1.0873250809440966,33.94808528963228
238.22761625061338,-1.0824930407988098,33.95346024445772
238.47761625061338,-1.0787697637473854,33.95953360364546
238.72761625061338,-1.0754606354792549,33.96418717378882
238.97761625061338,-1.0711512373916325,33.969564136973936
239.22761625061338,-1.0653138303273764,33.975824508868214
239.47761625061338,-1.057954078814409,33.98218970430572
239.72761625061338,-1.0502878858963833,33.989714049032415
239.97761625061338,-1.0457529934932823,33.99554246199775
240.22761625061338,-1.0421628270637682,34.00132211793623
240.47761625061338,-1.0367661035186304,34.00610913566564
240.72761625061338,-1.029746286380139,34.01054993783092
240.97761625061338,-1.0235067371766806,34.016727256957445
241.22761625061338,-1.019355988608607,34.02229409344729
241.47761625061338,-1.0146909763534886,34.02801169735752
241.72761625061338,-1.0073823190024336,34.032799697937556
241.97761625061338,-1.0001352253729707,34.036893738741504
242.22761625061338,-0.9948026476451435,34.04077383963264
242.47761625061338,-0.9890849031721802,34.04355564318707
242.72761625061338,-0.9831374732224789,34.046254884068276
242.97761625061338,-0.9778446802330462,34.05123213574871
243.22761625061338,-0.9728942381929758,34.05716921090415
243.47761625061338,-0.9695239318180906,34.06164312598616
243.72761625061338,-0.9671408263745352,34.06500652760682
243.97761625061338,-0.9613376610442544,34.06898682826617
244.22761625061338,-0.9537097483884638,34.071977777870806
244.47761625061338,-0.946133490772794,34.07863834446477
244.72761625061338,-0.9396830362846651,34.08399898149612
244.97761625061338,-0.9337997269131593,34.08607852985433
245.22761625061338,-0.9265295077508493,34.09083012433853
245.47761625061338,-0.9176363187102253,34.096560469022386
245.72761625061338,-0.911849032005112,34.10184350001512
245.97761625061338,-0.909205824392595,34.10632096625637
246.22761625061338,-0.9062866690491166,34.109506925685615
246.47761625061338,-0.9013500534174237,34.11151742415398
246.72761625061338,-0.8947570827070097,34.11384527474419
246.97761625061338,-0.8851967782576218,34.11759674589218
247.22761625061338,-0.8766091063303598,34.12195301105682
247.47761625061338,-0.8680734973658049,34.12832237734273
247.72761625061338,-0.86168483575068,34.13389961136904
247.97761625061338,-0.8576602198654756,34.13577531159366
248.22761625061338,-0.8478642748548384,34.13923001807686
248.47761625061338,-0.8417611806364472,34.14424790555377
248.72761625061338,-0.8389155877803025,34.14769834944734
248.97761625061338,-0.8359359260582729,34.15017895772486
249.22761625061338,-0.8324102390946924,34.15262851481743
249.47761625061338,-0.8278256791644127,34.15525730366652
249.72761625061338,-0.8206805504216096,34.160040634906906
249.97761625061338,-0.8167065892480273,34.16399568002878
250.22761625061338,-0.8144433136479187,34.166307226900905
250.47761625061338,-0.8085140083110773,34.16842299395404
250.72761625061338,-0.7994091390956498,34.17241480486468
250.97761625061338,-0.7933320158354982,34.178768472317145
251.22761625061338,-0.7903298806568583,34.18429162907285
251.47761625061338,-0.7887717610956205,34.18660667289879
251.72761625061338,-0.7884685787120255,34.18816899430494
251.97761625061338,-0.7834915713973666,34.190194600437835
252.22761625061338,-0.7716010876182059,34.192819151516524
252.47761625061338,-0.765474064061128,34.19886679740831
252.72761625061338,-0.7625835546086581,34.20314224053404
252.97761625061338,-0.7617760398572881,34.205539553519145
253.22761625061338,-0.7564220662757174,34.206828875563616
253.47761625061338,-0.7462995016183019,34.20910272717595
253.72761625061338,-0.7419647853248068,34.2145460517269
253.97761625061338,-0.7405779609153805,34.21775727792901
254.22761625061338,-0.7381578655285836,34.21918743962839
254.47761625061338,-0.7369038069465861,34.220894222571445
254.72761625061338,-0.7321408048205066,34.22221669320687
254.97761625061338,-0.7217866747926898,34.223956142062
255.22761625061338,-0.715753931778837,34.228876672166535
255.47761625061338,-0.7136666849880795,34.23236882111638
255.72761625061338,-0.7126065378188775,34.23365689257646
255.97761625061338,-0.709158441256816,34.23468379984477
256.2276162506134,-0.7015120089621149,34.23731117190237
256.4776162506134,-0.6934273095747053,34.241095630266656
256.7276162506134,-0.6914618098560844,34.24377243020336
256.9776162506134,-0.6898811463950311,34.24610013436624
257.2276162506134,-0.6885073810898088,34.24749425193071
257.4776162506134,-0.6841893005341784,34.2486607255732
257.7276162506134,-0.6757261506278076,34.25054212991304
257.9776162506134,-0.6692465225887074,34.25354363490987
258.2276162506134,-0.6667020694516089,34.25878552582355
258.4776162506134,-0.6651432274810434,34.260496569864166
258.7276162506134,-0.6613133792212585,34.26085984987187
258.9776162506134,-0.6524765277303635,34.26112874700117
259.2276162506134,-0.6411067137701951,34.26186043711174
259.4776162506134,-0.6337141712468294,34.26639473470921
259.7276162506134,-0.6282939578396167,34.270495791964606
259.9776162506134,-0.623931304498792,34.27422562585606
260.2276162506134,-0.6187548924430895,34.275263965536375
260.4776162506134,-0.6111960543830945,34.27468929845657
260.7276162506134,-0.6001923403864575,34.27698666662816
260.9776162506134,-0.5868332692461143,34.28167495204612
261.2276162506134,-0.5811083397296561,34.286526971316626
261.4776162506134,-0.5788700483967969,34.289851373079834
261.7276162506134,-0.5765304443676529,34.29139965284983
261.9776162506134,-0.5750021804577042,34.29209470938684
262.2276162506134,-0.5728315730967837,34.29298985335023
262.4776162506134,-0.5661126299287226,34.294640306994225
262.7276162506134,-0.559335867289949,34.29799351069064
262.9776162506134,-0.5552248890598455,34.301638087438086
263.2276162506134,-0.5527775188765843,34.30400955282853
263.4776162506134,-0.5510020866349693,34.305326876929215
263.7276162506134,-0.548803380654508,34.30656509838776
263.9776162506134,-0.5409781878918783,34.307783543583
264.2276162506134,-0.5334957628478528,34.31147151571359
264.4776162506134,-0.530181369390895,34.31520616543445
264.7276162506134,-0.5289041149975411,34.317066248876415
264.9776162506134,-0.5271382742928642,34.31830229085441
265.2276162506134,-0.5259976668465125,34.3190627425173
265.4776162506134,-0.5259551676257949,34.320443710828634
265.7276162506134,-0.5199521844567863,34.320571400707664
265.9776162506134,-0.5115364802875605,34.32239941994286
266.2276162506134,-0.5072570089573805,34.32670507434179
266.4776162506134,-0.5056370498149146,34.32926292316506
266.7276162506134,-0.5045284006240252,34.33067746635581
266.9776162506134,-0.5032421143916994,34.3308379591919
267.2276162506134,-0.4983126668770632,34.331868420816335
267.4776162506134,-0.49227238817307245,34.334847921532166
267.7276162506134,-0.4894443861891691,34.33850232874563
267.9776162506134,-0.4884596290024659,34.341114799339856
268.2276162506134,-0.4874239111705932,34.342145095389924
268.4776162506134,-0.4860339104551526,34.342520376660154
268.7276162506134,-0.4852815439462306,34.34326643401734
268.9776162506134,-0.48201709897256584,34.34417308874459
269.2276162506134,-0.4751338973926841,34.34596109891052
269.4776162506134,-0.4704182876814185,34.35018672260124
269.7276162506134,-0.4682959350599333,34.3538015598187
269.9776162506134,-0.4665929510606163,34.35583057626376
270.2276162506134,-0.46541172837894307,34.3575452658581
270.4776162506134,-0.46515038042184903,34.35887756191731
270.7276162506134,-0.4649082522465782,34.35906909851456
270.9776162506134,-0.4642803465504581,34.35930311324662
271.2276162506134,-0.46386220245138526,34.35941706320509
271.4776162506134,-0.46303682298027576,34.35945490618783
271.7276162506134,-0.4623615702144589,34.35989748024225
271.9776162506134,-0.46119719772198553,34.360045373402905
272.2276162506134,-0.45818095239399814,34.36027554767486
272.4776162506134,-0.4550757411737279,34.36345942172481
272.7276162506134,-0.4538390976084739,34.36686316867298
272.9776162506134,-0.4533766400729716,34.36874202676146
273.2276162506134,-0.4527406412041081,34.36961064360445
273.4776162506134,-0.4527114622454079,34.37068390277356
273.7276162506134,-0.4520550770333194,34.37172775170248
273.9776162506134,-0.44615476477362515,34.371378075953814
274.2276162506134,-0.43920140070973196,34.37224010667689
274.4776162506134,-0.43267700215660954,34.374968137540904
274.7276162506134,-0.42852136969807214,34.37855830613096
274.9776162506134,-0.4270818069457856,34.38168318516122
275.2276162506134,-0.42554765495062985,34.38342513589515
275.4776162506134,-0.42483347682223493,34.38400716605258
275.7276162506134,-0.42410219241305014,34.3837398265704
275.9776162506134,-0.4236584459758902,34.38402482657981
276.2276162506134,-0.42226049437119567,34.384893006780956
276.4776162506134,-0.41668741508405316,34.38548471926199
276.7276162506134,-0.4078054820944525,34.38701438780228
276.9776162506134,-0.40409140971631585,34.3914059186327
277.2276162506134,-0.4032738811266364,34.394225349770814
277.4776162506134,-0.4022207670111695,34.39475654054091
277.7276162506134,-0.4020524444642648,34.39548911112597
277.9776162506134,-0.3997559430054062,34.396011704322724
278.2276162506134,-0.38923027717258324,34.39485774699198
278.4776162506134,-0.3845787827663849,34.398790681324186
