Depth,Temperature,Salinity
151.55304341101817,-1.4460117159417039,33.17381390152152
151.80304341101817,-1.4452405288746084,33.17983145550875
152.05304341101817,-1.4451870036588395,33.184339255624295
152.30304341101817,-1.4447913152003269,33.18906095464667
152.55304341101817,-1.4439066851755653,33.19465835629084
152.80304341101817,-1.4430867620225387,33.200981492288655
153.05304341101817,-1.4418574018975798,33.20845552046396
153.30304341101817,-1.4411039045558787,33.21190204220499
153.55304341101817,-1.440428557670845,33.21617586195828
153.80304341101817,-1.4387278520723414,33.22814929019265
154.05304341101817,-1.4373264704238438,33.23532772776627
154.30304341101817,-1.43635662403556,33.24009222502036
154.55304341101817,-1.4355419359331325,33.245451766820715
154.80304341101817,-1.434603948334833,33.25116346971246
155.05304341101817,-1.4333866333763163,33.257729398859574
155.30304341101817,-1.4326384036573216,33.26309705749343
155.55304341101817,-1.4315956270364671,33.267509427185615
155.80304341101817,-1.4298564168315568,33.27291683938495
156.05304341101817,-1.4282494439506115,33.28019618163936
156.30304341101817,-1.425915660934819,33.28743581544833
156.55304341101817,-1.4220831693491356,33.29283290205204
156.80304341101817,-1.4174241084878878,33.29691347747966
157.05304341101817,-1.4133856803975398,33.30102373567437
157.30304341101817,-1.4103608296832526,33.30520036067892
157.55304341101817,-1.4076453009733791,33.312802645946576
157.80304341101817,-1.4058084880496995,33.32048460550262
158.05304341101817,-1.4053148169157266,33.324853658729204
158.30304341101817,-1.4050665132660172,33.32900981411683
158.55304341101817,-1.404511077388989,33.33352003388297
158.80304341101817,-1.40541246961106,33.33949421560739
159.05304341101817,-1.407689016341575,33.34617220351228
159.30304341101817,-1.4099293226370413,33.35202497223628
159.55304341101817,-1.4138613637257713,33.359095544532444
159.80304341101817,-1.4170302964660584,33.36654180317922
160.05304341101817,-1.4188628543027202,33.37269160607491
160.30304341101817,-1.4204052210925342,33.37706060419303
160.55304341101817,-1.4209118247049315,33.38050388152482
160.80304341101817,-1.4209926279978968,33.38356604809097
161.05304341101817,-1.4207451586513087,33.389740563288136
161.30304341101817,-1.4193651758793038,33.40009093599482
161.55304341101817,-1.4167290953120368,33.4099018495591
161.80304341101817,-1.415364037858879,33.414715338876405
162.05304341101817,-1.4143685048995214,33.419221713113586
162.30304341101817,-1.4122183171707727,33.42462730522067
162.55304341101817,-1.4093101308903457,33.42955660356829
162.80304341101817,-1.4072824757626594,33.43948122804688
163.05304341101817,-1.4048779434639138,33.446559219568584
163.30304341101817,-1.4021427341669974,33.45184648452048
163.55304341101817,-1.399913888270063,33.459877224425796
163.80304341101817,-1.3976093770119995,33.466207547839254
164.05304341101817,-1.3950618385352722,33.472833688539914
164.30304341101817,-1.392590080758375,33.47829106041442
164.55304341101817,-1.3898745494748095,33.48399567036514
164.80304341101817,-1.386240084415373,33.4936345407478
165.05304341101817,-1.382388542294528,33.500740310957866
165.30304341101817,-1.3779809527019404,33.506620548409806
165.55304341101817,-1.3737963103261175,33.51326288965173
165.80304341101817,-1.3709465067179765,33.51932269060031
166.05304341101817,-1.3686018734279284,33.524028065141756
166.30304341101817,-1.364502435197695,33.53285272543184
166.55304341101817,-1.3605799321641683,33.54035985062157
166.80304341101817,-1.3574535295938748,33.544645441291934
167.05304341101817,-1.3532149731103467,33.55139080944439
167.30304341101817,-1.3482825639520801,33.56154277681832
167.55304341101817,-1.3449421213546229,33.5709409434694
167.80304341101817,-1.3423470366202335,33.57671804929982
168.05304341101817,-1.3387852376994906,33.58136207352384
168.30304341101817,-1.3354234440872375,33.589627686416954
168.55304341101817,-1.3317054780970563,33.593927359854135
168.80304341101817,-1.327782352288314,33.597574878765165
169.05304341101817,-1.3246001438267747,33.60574985980153
169.30304341101817,-1.3224386765148703,33.6131737217509
169.55304341101817,-1.3197155637058553,33.61667570733942
169.80304341101817,-1.3174529369655346,33.620379584995426
170.05304341101817,-1.315921745454285,33.62506825892468
170.30304341101817,-1.3133775531151453,33.62721684799739
170.55304341101817,-1.310145348295372,33.63204731392246
170.80304341101817,-1.3069850119500157,33.63786938431343
171.05304341101817,-1.30400237306671,33.643215160247756
171.30304341101817,-1.3012062704810057,33.64788770144499
171.55304341101817,-1.2990189951613174,33.650130515367735
171.80304341101817,-1.2957031939822523,33.65636307467037
172.05304341101817,-1.2912056145786628,33.6652364882659
172.30304341101817,-1.2866914451911824,33.67115557281621
172.55304341101817,-1.2825041287661543,33.67485822872198
172.80304341101817,-1.2780469047832546,33.68406808709538
173.05304341101817,-1.275020272401227,33.689710089339314
173.30304341101817,-1.271089253563302,33.69337293147199
173.55304341101817,-1.263317250651006,33.705387987715255
173.80304341101817,-1.2569656472043877,33.716299844870875
174.05304341101817,-1.2513232262408953,33.7248498043154
174.30304341101817,-1.2463298286815283,33.73255766678475
174.55304341101817,-1.2424241296535823,33.738940196550395
174.80304341101817,-1.2382037295816695,33.74408863495614
175.05304341101817,-1.232761083825762,33.75343744213149
175.30304341101817,-1.2288722126812741,33.759784675633284
175.55304341101817,-1.2256546348088564,33.763891834749906
175.80304341101817,-1.2208580219478833,33.771100221987204
176.05304341101817,-1.2166099150098006,33.776869797675104
176.30304341101817,-1.2126084981980123,33.78273640035804
176.55304341101817,-1.2070497135507197,33.791573350148745
176.80304341101817,-1.2016430952758381,33.79979388293348
177.05304341101817,-1.19970550261245,33.801929347397824
177.30304341101817,-1.1969498547448219,33.80592158751602
177.55304341101817,-1.1942410175955616,33.81039789670671
177.80304341101817,-1.1916555372933229,33.81538478275837
178.05304341101817,-1.1879748688650367,33.82242222641782
178.30304341101817,-1.185111102245728,33.82633516187056
178.55304341101817,-1.182098107059925,33.829617834821995
178.80304341101817,-1.1781374436963359,33.837147776623645
179.05304341101817,-1.1740297840653353,33.84636067218874
179.30304341101817,-1.171066707804504,33.84929957385105
179.55304341101817,-1.1683615170182915,33.853897957971775
179.80304341101817,-1.1647969462277885,33.86040072353968
180.05304341101817,-1.1607367930664507,33.86515936217638
180.30304341101817,-1.1570344399343817,33.868899043487374
180.55304341101817,-1.1527499734483937,33.876429862970376
180.80304341101817,-1.1488178026111704,33.882223100331004
181.05304341101817,-1.1452221857923848,33.88741402669965
181.30304341101817,-1.1416153932850315,33.89486160656771
181.55304341101817,-1.1388174296275537,33.897878058134175
181.80304341101817,-1.1346774934344719,33.90146059336106
182.05304341101817,-1.1297815419567079,33.90792158283401
182.30304341101817,-1.1250491682748458,33.91566216423295
182.55304341101817,-1.1192963822595388,33.92342412004298
182.80304341101817,-1.1148612148434986,33.929467300020235
183.05304341101817,-1.1111398001133015,33.93550494487709
183.30304341101817,-1.1071239381201963,33.941484899334526
183.55304341101817,-1.103434163082278,33.94513727120316
183.80304341101817,-1.09996297241659,33.94929685392512
184.05304341101817,-1.0971064101809382,33.95510508121508
184.30304341101817,-1.0937223283554627,33.96127747467835
184.55304341101817,-1.089181840546086,33.966306839543016
184.80304341101817,-1.0853664535642589,33.97071782013643
185.05304341101817,-1.081715266377453,33.976405728677776
185.30304341101817,-1.0784231245223588,33.98237666114359
185.55304341101817,-1.0755166921178934,33.987272024127726
185.80304341101817,-1.0724430581664406,33.99192060958118
186.05304341101817,-1.0696118528739516,33.997862079083454
186.30304341101817,-1.0665138749820058,34.001632750249634
186.55304341101817,-1.0624003467645966,34.00529094912751
186.80304341101817,-1.0569705632109432,34.0123792440621
187.05304341101817,-1.0509642102395529,34.01841333116098
187.30304341101817,-1.046860757912135,34.022248605218586
187.55304341101817,-1.0429029620970682,34.02492609849905
187.80304341101817,-1.037395255058346,34.028619396710006
188.05304341101817,-1.0326171340948203,34.034277669895886
188.30304341101817,-1.0287950690439855,34.03763672841937
188.55304341101817,-1.025241479213094,34.0415930689231
188.80304341101817,-1.021836998446697,34.04701132388106
189.05304341101817,-1.018751820292195,34.05071715483212
189.30304341101817,-1.0153168945950775,34.0542766885593
189.55304341101817,-1.0121742853948175,34.05892555587793
189.80304341101817,-1.009557114500436,34.06259992767008
190.05304341101817,-1.0068003454370382,34.06511555362563
190.30304341101817,-1.0034161514421849,34.07001596796687
190.55304341101817,-1.0005563379235842,34.07230192083833
190.80304341101817,-0.9967650163430934,34.07543161123818
191.05304341101817,-0.9912895812315912,34.08197580799424
191.30304341101817,-0.9859008790463981,34.08830027006512
191.55304341101817,-0.9818541778144332,34.09370434911713
191.80304341101817,-0.9784579044109163,34.098738480784085
192.05304341101817,-0.9757365923041973,34.10184462546458
192.30304341101817,-0.973522731636739,34.103722437878616
192.55304341101817,-0.9706217863958827,34.108481351233856
192.80304341101817,-0.968639263288576,34.1110774936311
193.05304341101817,-0.9664192659615667,34.11463358631707
193.30304341101817,-0.9628102058395431,34.120667016347625
193.55304341101817,-0.9591672095654358,34.124252280161514
193.80304341101817,-0.957275948498885,34.125450604190306
194.05304341101817,-0.9545257292830749,34.12836154257986
194.30304341101817,-0.9489002735671188,34.13329998611657
194.55304341101817,-0.9417549719516164,34.13762140263408
194.80304341101817,-0.9360250854880574,34.142442997127105
195.05304341101817,-0.9315684487724085,34.14624015726395
195.30304341101817,-0.9266759576473846,34.14942310609973
195.55304341101817,-0.921097585484152,34.152706464369494
195.80304341101817,-0.9164962772211364,34.15446257776958
196.05304341101817,-0.9099025445943955,34.158539110466144
196.30304341101817,-0.9036123322152484,34.16357673166631
196.55304341101817,-0.8994814810496733,34.16649537747712
196.80304341101817,-0.8943551330297052,34.16857846128714
197.05304341101817,-0.8881766163904629,34.17318414999827
197.30304341101817,-0.8826605612520346,34.17759288340754
197.55304341101817,-0.8777853934562172,34.18035741531737
197.80304341101817,-0.872708050863653,34.1839324579102
198.05304341101817,-0.8683321254953591,34.18976330037261
198.30304341101817,-0.8644161711180917,34.19361317494053
198.55304341101817,-0.8600545075144547,34.19672775739741
198.80304341101817,-0.8555739031957041,34.20014621573903
199.05304341101817,-0.8524273964453561,34.20222476102362
199.30304341101817,-0.8502706986448955,34.204689552951926
199.55304341101817,-0.8450064923129431,34.20764787240261
199.80304341101817,-0.839143224743597,34.21013648387136
200.05304341101817,-0.8358418807128613,34.212383067693956
200.30304341101817,-0.8324156478655952,34.21539613289822
200.55304341101817,-0.8277423141462733,34.21726415361443
200.80304341101817,-0.8232284942236485,34.21933456466058
201.05304341101817,-0.819280024393489,34.22184150740271
201.30304341101817,-0.8150926820332768,34.224337487423995
201.55304341101817,-0.8108476033954708,34.22815003648127
201.80304341101817,-0.8069737164994397,34.2291350401118
202.05304341101817,-0.8032768911211119,34.22941040913439
202.30304341101817,-0.8001454698897026,34.23155405849505
202.55304341101817,-0.7979511480613294,34.23328421537933
202.80304341101817,-0.7938113468562549,34.2351418843635
203.05304341101817,-0.7896580268101105,34.23820723109896
203.30304341101817,-0.7866766013081208,34.24144188599945
203.55304341101817,-0.7831872573756548,34.24328249794671
203.80304341101817,-0.7789599871134049,34.245415795103625
204.05304341101817,-0.775053182110131,34.24682078123188
204.30304341101817,-0.7725363939584733,34.24758044347717
204.55304341101817,-0.7708948514092209,34.248733943113535
204.80304341101817,-0.7677928138545793,34.24987791164385
205.05304341101817,-0.763373050143259,34.25202920471516
205.30304341101817,-0.7590861253711695,34.25397759870798
205.55304341101817,-0.755609205433178,34.25574929423942
205.80304341101817,-0.7521680651178667,34.25995431130908
206.05304341101817,-0.7486762339608489,34.262745691509245
206.30304341101817,-0.7442309020029381,34.26433165684504
206.55304341101817,-0.7398164004055824,34.26600252106195
206.80304341101817,-0.7373839411173152,34.26742357745931
207.05304341101817,-0.7347232801254017,34.26927420412577
207.30304341101817,-0.730993990730784,34.27090929142257
207.55304341101817,-0.7259726176578395,34.272492622679785
207.80304341101817,-0.7205986386484317,34.275470915300865
208.05304341101817,-0.7172266999879763,34.27986871211797
208.30304341101817,-0.715179124860129,34.28036458689278
208.55304341101817,-0.7124631198409747,34.280615040589424
208.80304341101817,-0.7082379513179323,34.283551873803624
209.05304341101817,-0.7033652117087605,34.28577287016101
209.30304341101817,-0.6986339951422516,34.28693411021369
209.55304341101817,-0.6938780255176168,34.289881448653624
209.80304341101817,-0.6904739127610421,34.2924421891372
210.05304341101817,-0.6887138772501326,34.29231005828515
210.30304341101817,-0.6859252822410986,34.29340400549908
210.55304341101817,-0.6832345987907645,34.29551562928497
210.80304341101817,-0.6792034513875703,34.2976404097561
211.05304341101817,-0.6750485827531961,34.29922680590314
211.30304341101817,-0.6725661168770503,34.300588309032776
211.55304341101817,-0.6671226254681974,34.30274635547502
211.80304341101817,-0.6636783628419377,34.3047434652889
212.05304341101817,-0.6614005506665969,34.30702498321334
212.30304341101817,-0.6572590324780779,34.3091983777349
212.55304341101817,-0.6522969399005932,34.31000117217606
212.80304341101817,-0.6465820848360176,34.312498629328935
213.05304341101817,-0.6409055416047043,34.31597746881898
213.30304341101817,-0.6369754916621897,34.31885216242006
213.55304341101817,-0.6351087420585576,34.32048619079792
213.80304341101817,-0.6326748843049472,34.32097958317056
214.05304341101817,-0.6290360334029435,34.32238507457736
214.30304341101817,-0.624378983947326,34.323637814553344
214.55304341101817,-0.6196880443804395,34.32441940971577
214.80304341101817,-0.6158045151153405,34.32699344878276
215.05304341101817,-0.6112628859542243,34.329828016336265
215.30304341101817,-0.6079818837425961,34.33152642214865
215.55304341101817,-0.6052205005754395,34.33269059429834
215.80304341101817,-0.6008519281496982,34.33413709302517
216.05304341101817,-0.5963145788314916,34.33522748884766
216.30304341101817,-0.5925843672648019,34.336958915924555
216.55304341101817,-0.5878490432146876,34.338977990485986
216.80304341101817,-0.5825299369538729,34.34067032700943
217.05304341101817,-0.5791902009115943,34.34229622049516
217.30304341101817,-0.5763207663239751,34.34428957141734
217.55304341101817,-0.5728749354500646,34.34616310826041
217.80304341101817,-0.568348990521452,34.347144168131315
218.05304341101817,-0.5635147321447305,34.348218954840306
218.30304341101817,-0.5604084424070209,34.351564874885156
218.55304341101817,-0.5577859539756894,34.352279820947736
218.80304341101817,-0.5545436986274028,34.35304380083253
219.05304341101817,-0.5507693960791864,34.35570076473859
219.30304341101817,-0.547084234820272,34.355944882627355
219.55304341101817,-0.5434986161785691,34.359181135245834
219.80304341101817,-0.5389091376742582,34.36083863521151
220.05304341101817,-0.534062052695202,34.36129953484482
220.30304341101817,-0.5300026661380626,34.365340757275355
220.55304341101817,-0.5248414453571598,34.36708614354182
220.80304341101817,-0.5211459636647943,34.367755959126804
221.05304341101817,-0.5182968229967337,34.367889921638955
221.30304341101817,-0.5153896081669119,34.368928010522055
221.55304341101817,-0.513398662793512,34.37282186489023
221.80304341101817,-0.5092248964911957,34.37310493771124
222.05304341101817,-0.5054441431119224,34.37342986876692
222.30304341101817,-0.5021865156927606,34.375373908599954
222.55304341101817,-0.4972929946733941,34.37614725307493
222.80304341101817,-0.4936319711267808,34.3781155654896
223.05304341101817,-0.4886279854676497,34.380239798219144
223.30304341101817,-0.4827387573950883,34.38307060224242
223.55304341101817,-0.47894843288294664,34.386176790768786
223.80304341101817,-0.47696685201824607,34.38634912523238
224.05304341101817,-0.47202368250559157,34.38612407086715
224.30304341101817,-0.46480471522820505,34.389615550223034
224.55304341101817,-0.45963240637442043,34.39378771282982
224.80304341101817,-0.4579517199780899,34.39429477217753
225.05304341101817,-0.45545376565132306,34.39557220467082
225.30304341101817,-0.45135896551645666,34.39772693109955
225.55304341101817,-0.4481362920038184,34.39760712654398
225.80304341101817,-0.4453156825534027,34.39647999904525
226.05304341101817,-0.4401809402177995,34.3993382978944
226.30304341101817,-0.43796844692762477,34.40187729344
226.55304341101817,-0.43507807828471334,34.40275222212017
226.80304341101817,-0.429432710321873,34.40401239687825
227.05304341101817,-0.4248014667056068,34.40689559120053
227.30304341101817,-0.422091064186237,34.408452959981666
227.55304341101817,-0.417810097788943,34.409057032187725
227.80304341101817,-0.41194141775819154,34.4108442847796
228.05304341101817,-0.4072854375008618,34.41357777397907
228.30304341101817,-0.40435549230836315,34.41402549073301
228.55304341101817,-0.4025201012609327,34.41402785996826
228.80304341101817,-0.4006965948737789,34.41436023387623
229.05304341101817,-0.397325321170269,34.41605625752524
229.30304341101817,-0.3923938320317296,34.419221690376276
229.55304341101817,-0.38894899045774894,34.41944360436419
229.80304341101817,-0.38360121703745276,34.41960641730658
230.05304341101817,-0.3786684884078503,34.4211735305537
230.30304341101817,-0.37553129760575543,34.42353731853189
230.55304341101817,-0.3689123323189309,34.426493075662826
230.80304341101817,-0.36454584293231673,34.42712637228499
231.05304341101817,-0.3605125322097783,34.42737454395822
231.30304341101817,-0.3545496145095647,34.42936971491862
231.55304341101817,-0.3482732897168961,34.43236563495268
231.80304341101817,-0.3409940831341411,34.43532385048894
232.05304341101817,-0.33542954960241705,34.437084283675276
232.30304341101817,-0.3316303571117469,34.43819616937131
232.55304341101817,-0.3281757115140475,34.439490925841824
232.80304341101817,-0.32564039342110335,34.44032530929975
233.05304341101817,-0.3233451057755259,34.440658400886655
233.30304341101817,-0.31890230801247704,34.442456229190135
233.55304341101817,-0.3128171644652332,34.44513744302589
233.80304341101817,-0.3083388679768937,34.44608041256027
234.05304341101817,-0.3052990738610169,34.44691561128489
234.30304341101817,-0.3016342837275294,34.44796925020404
234.55304341101817,-0.2967009491330489,34.44939520551963
234.80304341101817,-0.29131675224373627,34.45164491202552
235.05304341101817,-0.28626837524670873,34.45444524213519
235.30304341101817,-0.28269924852112405,34.45592640277891
235.55304341101817,-0.2801459915471511,34.45608135547322
235.80304341101817,-0.27745023482182735,34.45620122765066
236.05304341101817,-0.2746524996341115,34.456938459145235
236.30304341101817,-0.2734115159926906,34.457488603883775
236.55304341101817,-0.27211184705073005,34.45790209303265
236.80304341101817,-0.27044865580800287,34.458203378563404
237.05304341101817,-0.26899432047037136,34.45823913112589
237.30304341101817,-0.26625562180203627,34.45863380668548
237.55304341101817,-0.2621790638227395,34.46118349189967
237.80304341101817,-0.25765445516783797,34.463422464988945
238.05304341101817,-0.2531472474340847,34.464644747791816
238.30304341101817,-0.2487628929212353,34.467313670575564
238.55304341101817,-0.2455253277013391,34.46925338452469
