Depth,Temperature,Salinity
152.36773324838586,-1.4489506862129529,33.16735909703568
152.61773324838586,-1.4491320324624177,33.17279755310718
152.86773324838586,-1.4482269719331962,33.1765679626975
153.11773324838586,-1.4478405945994133,33.181293641364114
153.36773324838586,-1.447998494470238,33.18648990110857
153.61773324838586,-1.447807572836904,33.1904494069838
153.86773324838586,-1.4474219719747121,33.19464252683518
154.11773324838586,-1.447015800884742,33.20032827225882
154.36773324838586,-1.4467356259289135,33.20527083836617
154.61773324838586,-1.4465847490767123,33.20858489939078
154.86773324838586,-1.4461110463704052,33.21267104468293
155.11773324838586,-1.4447941132460347,33.219109582432964
155.36773324838586,-1.4433081059197734,33.22423107124414
155.61773324838586,-1.4409504677038587,33.228628812505555
155.86773324838586,-1.4383317959592872,33.2339192745454
156.11773324838586,-1.4361288060483404,33.23983930884213
156.36773324838586,-1.4336040321414132,33.24515407898715
156.61773324838586,-1.4317642179028227,33.24975281518883
156.86773324838586,-1.4297313571271595,33.25374696580059
157.11773324838586,-1.4277610040932134,33.257878317404796
157.36773324838586,-1.4269910498160454,33.26228099606796
157.61773324838586,-1.4270350207621632,33.26650753065731
157.86773324838586,-1.4261144923138165,33.27211286182256
158.11773324838586,-1.4259252278023886,33.27958686199917
158.36773324838586,-1.4261956184974147,33.28645971312528
158.61773324838586,-1.425675967601279,33.29210252464802
158.86773324838586,-1.4246111329668718,33.29899683519194
159.11773324838586,-1.4230400891827584,33.30661697227724
159.36773324838586,-1.4207549290218306,33.31423135178583
159.61773324838586,-1.4187314177874608,33.321185679047396
159.86773324838586,-1.4175680361131295,33.327474441406004
160.11773324838586,-1.4167126198444178,33.333364197969935
160.36773324838586,-1.415974586044166,33.338638498446024
160.61773324838586,-1.4153372136903808,33.3451206458571
160.86773324838586,-1.4144024179999561,33.352173306891075
161.11773324838586,-1.4128678149547296,33.359224642654794
161.36773324838586,-1.4108163970703431,33.36636051286099
161.61773324838586,-1.408397364602483,33.37164805994462
161.86773324838586,-1.405837412884668,33.376803702010285
162.11773324838586,-1.4029501231774748,33.381941315089975
162.36773324838586,-1.3997645453498084,33.386752740188314
162.61773324838586,-1.396332472986481,33.39215254234605
162.86773324838586,-1.3919890313312067,33.398539648049606
163.11773324838586,-1.387828049686595,33.40589522776436
163.36773324838586,-1.3838673092901386,33.413371279924924
163.61773324838586,-1.3797243992234556,33.42056963263341
163.86773324838586,-1.375981893923528,33.42795517364953
164.11773324838586,-1.37360791820503,33.435720442766964
164.36773324838586,-1.372055203659336,33.443641450374386
164.61773324838586,-1.3705221822740905,33.45179669716634
164.86773324838586,-1.3683403339730895,33.459864899236585
165.11773324838586,-1.3655347599086767,33.46760380314344
165.36773324838586,-1.3630054125474103,33.47559982466274
165.61773324838586,-1.3606164007220551,33.4831890645036
165.86773324838586,-1.358257374180823,33.490697344294674
166.11773324838586,-1.3554880602314467,33.49815214248717
166.36773324838586,-1.3521307863073095,33.50533620189764
166.61773324838586,-1.348706188054196,33.512542796598744
166.86773324838586,-1.3441596472452333,33.518397264366776
167.11773324838586,-1.3392634796451002,33.523799923838766
167.36773324838586,-1.3351920772712298,33.52878861054274
167.61773324838586,-1.33233302172236,33.533000403933535
167.86773324838586,-1.3304569956539591,33.53823908461454
168.11773324838586,-1.3282532429143923,33.54422722019558
168.36773324838586,-1.3245916141778904,33.55154014167185
168.61773324838586,-1.3199561246884122,33.55921054625419
168.86773324838586,-1.3158821641046294,33.56540196100135
169.11773324838586,-1.3127430535445634,33.570588873577634
169.36773324838586,-1.3087473452442213,33.57595395055203
169.61773324838586,-1.30447220600902,33.582118653561054
169.86773324838586,-1.3020461934145438,33.59018936654007
170.11773324838586,-1.301830005300602,33.5992532902806
170.36773324838586,-1.3014883529431212,33.60632866508035
170.61773324838586,-1.3003432794297143,33.61494888486149
170.86773324838586,-1.2978210643865424,33.6212131935677
171.11773324838586,-1.294565067823889,33.62604577596511
171.36773324838586,-1.2912403943137334,33.6335377689473
171.61773324838586,-1.2872338216272634,33.64172039834098
171.86773324838586,-1.2830739300903953,33.64957588466923
172.11773324838586,-1.2784067098347658,33.65808598728644
172.36773324838586,-1.2739612802742406,33.66672076770612
172.61773324838586,-1.2704567335212609,33.67392120731151
172.86773324838586,-1.2670718262754666,33.6798084877573
173.11773324838586,-1.2639021842075102,33.68581017893427
173.36773324838586,-1.2603218384312393,33.691597241703434
173.61773324838586,-1.2564574633380463,33.69731108569412
173.86773324838586,-1.252644893045853,33.703050361336274
174.11773324838586,-1.2486643060128024,33.70841698687835
174.36773324838586,-1.2451346575884892,33.71510138622028
174.61773324838586,-1.241470357579219,33.72170468405685
174.86773324838586,-1.237180887984511,33.72763254196276
175.11773324838586,-1.2325397941226068,33.73378419415114
175.36773324838586,-1.227972527720472,33.740500011053186
175.61773324838586,-1.2232685473590759,33.74702679107409
175.86773324838586,-1.218719890184654,33.753699813362466
176.11773324838586,-1.2141823322542167,33.76039237563067
176.36773324838586,-1.2093808877911254,33.767118526206666
176.61773324838586,-1.2045611235418534,33.774700125874254
176.86773324838586,-1.1998945241414976,33.78303559782892
177.11773324838586,-1.1942818710922665,33.79067110052668
177.36773324838586,-1.188535499230511,33.79795240475661
177.61773324838586,-1.183765875494092,33.8051349652732
177.86773324838586,-1.179453139301706,33.81118784051624
178.11773324838586,-1.175443959410716,33.81730626417904
178.36773324838586,-1.1710075443496668,33.823738024520125
178.61773324838586,-1.1662875737309253,33.83007248592568
178.86773324838586,-1.161763109589775,33.836158033889255
179.11773324838586,-1.1573096360457233,33.842457418703546
179.36773324838586,-1.1526962347607326,33.84949749540221
179.61773324838586,-1.147128313157107,33.85671763498975
179.86773324838586,-1.141088498780904,33.864110234592886
180.11773324838586,-1.1353858090620732,33.87126284564587
180.36773324838586,-1.1301979088240683,33.87722172382172
180.61773324838586,-1.126081144143249,33.883097876970695
180.86773324838586,-1.1216556632232708,33.88932517601899
181.11773324838586,-1.1166093742403818,33.895831374279496
181.36773324838586,-1.111720545182934,33.902142244810946
181.61773324838586,-1.107457007504184,33.90758326459493
181.86773324838586,-1.1038819450068331,33.91205819565416
182.11773324838586,-1.100536250756068,33.91585913421121
182.36773324838586,-1.0973137535907083,33.91960975456019
182.61773324838586,-1.094263391536162,33.923539481907234
182.86773324838586,-1.0910441814143008,33.92738647035021
183.11773324838586,-1.087272084886164,33.931478269115196
183.36773324838586,-1.0836624168600104,33.93564487456898
183.61773324838586,-1.080359632161083,33.94039745105245
183.86773324838586,-1.0766244220325396,33.94554424223622
184.11773324838586,-1.0717630106315648,33.950403729595095
184.36773324838586,-1.066022168593894,33.956620441110054
184.61773324838586,-1.0603956496839009,33.961981691971225
184.86773324838586,-1.055271245017413,33.9663718250581
185.11773324838586,-1.0507996125238406,33.971200119897546
185.36773324838586,-1.046946611481608,33.97634378693151
185.61773324838586,-1.0426673337030126,33.980939625748654
185.86773324838586,-1.0385706470743161,33.985935861270804
186.11773324838586,-1.0347611474571285,33.99059758266756
186.36773324838586,-1.0309777981483599,33.99464582827074
186.61773324838586,-1.027156438683118,33.99945631382617
186.86773324838586,-1.0227682093329646,34.004803919750756
187.11773324838586,-1.0175464272060135,34.010361592116155
187.36773324838586,-1.0126372609740044,34.01610642998237
187.61773324838586,-1.008789283039906,34.02146114659639
187.86773324838586,-1.0054568070239644,34.02572264972996
188.11773324838586,-1.0023827319547327,34.02965548588168
188.36773324838586,-0.9997963394529856,34.03389839398483
188.61773324838586,-0.9971221545148365,34.03789477849965
188.86773324838586,-0.9943931056728168,34.041781052671396
189.11773324838586,-0.9919895919924301,34.04602877543778
189.36773324838586,-0.9889979460344285,34.049574241286734
189.61773324838586,-0.9859113986132407,34.0533208509788
189.86773324838586,-0.9829426186603332,34.0574084020896
190.11773324838586,-0.9796224883362941,34.061386256847975
190.36773324838586,-0.9757398575657142,34.06523395231046
190.61773324838586,-0.9720979239062087,34.06920861926674
190.86773324838586,-0.9691659349777588,34.07252332978127
191.11773324838586,-0.9661387309045784,34.0758891579835
191.36773324838586,-0.9628006406643069,34.079779835294076
191.61773324838586,-0.9599790567556113,34.08377452400379
191.86773324838586,-0.9579806342003799,34.08774264201455
192.11773324838586,-0.9559446417128823,34.091361744411614
192.36773324838586,-0.9537590828357486,34.09500095690453
192.61773324838586,-0.9513613835797006,34.09837421850277
192.86773324838586,-0.9486809315838456,34.10119742732809
193.11773324838586,-0.9461463784487323,34.10444262697706
193.36773324838586,-0.9433172127938568,34.10778263305693
193.61773324838586,-0.9393686969157934,34.11229057959545
193.86773324838586,-0.9338745799862158,34.11670455896908
194.11773324838586,-0.9268293389161384,34.12061599815022
194.36773324838586,-0.9186503346135081,34.1274413045709
194.61773324838586,-0.9112463379407922,34.132362822976425
194.86773324838586,-0.9058817443760426,34.136380341700814
195.11773324838586,-0.9022191438878608,34.13988673773408
195.36773324838586,-0.8983787243313359,34.14286834520502
195.61773324838586,-0.8929533444706651,34.14853731587378
195.86773324838586,-0.8887898683111615,34.15108510819807
196.11773324838586,-0.8851022746974371,34.15541142797169
196.36773324838586,-0.881626105298241,34.16080768805336
196.61773324838586,-0.8788983978355226,34.16279455862399
196.86773324838586,-0.875191691133866,34.16701917115371
197.11773324838586,-0.8712038037476149,34.17181116770175
197.36773324838586,-0.8680332168770597,34.173550957403684
197.61773324838586,-0.8639860904132314,34.17585270530641
197.86773324838586,-0.8583294075467834,34.1815780879664
198.11773324838586,-0.8551869818895508,34.183340125439166
198.36773324838586,-0.8540177955007309,34.183487678630286
198.61773324838586,-0.8492240687625834,34.18689158574842
198.86773324838586,-0.8422684824462845,34.192123746451685
199.11773324838586,-0.8392596145290756,34.19416238395364
199.36773324838586,-0.8380007592452755,34.19406427957329
199.61773324838586,-0.8334060654922922,34.19796281456949
199.86773324838586,-0.8272551061464513,34.204131083311836
200.11773324838586,-0.8233246992633998,34.20682152405234
200.36773324838586,-0.8205552882133824,34.207069780634086
200.61773324838586,-0.8146666324413403,34.21294083610199
200.86773324838586,-0.8104292847216397,34.215209751079776
201.11773324838586,-0.8088356563137327,34.214486685594274
201.36773324838586,-0.8068701248832363,34.21575778137943
201.61773324838586,-0.8021922947851522,34.219915592675754
201.86773324838586,-0.7962695590936242,34.225259508415704
202.11773324838586,-0.7939826228676208,34.22668860840011
202.36773324838586,-0.7901690768485626,34.226824020246596
202.61773324838586,-0.7824326788652115,34.23139573701451
202.86773324838586,-0.775874855277009,34.23837313969356
203.11773324838586,-0.7732806865620857,34.238446505843754
203.36773324838586,-0.7704252706837142,34.23872844784546
203.61773324838586,-0.7638128500552291,34.24387356735998
203.86773324838586,-0.7574759802774431,34.24891192912318
204.11773324838586,-0.7566382844410708,34.24872529715128
204.36773324838586,-0.7561889806588047,34.2492035495424
204.61773324838586,-0.7471914762848252,34.25643444532476
204.86773324838586,-0.7406764385437272,34.2616071043436
205.11773324838586,-0.7401523059245416,34.26132716772827
205.36773324838586,-0.7389724397907234,34.26090540925845
205.61773324838586,-0.7383915269899248,34.261284117635384
205.86773324838586,-0.7320485528151456,34.2651826489805
206.11773324838586,-0.7248986254402056,34.27133566522471
206.36773324838586,-0.7209772322427284,34.27462610776379
206.61773324838586,-0.7192629929436448,34.27371408278257
206.86773324838586,-0.7189144529850131,34.2749190289467
207.11773324838586,-0.7122057019295084,34.278825052081956
207.36773324838586,-0.7050870095450404,34.283791694830214
207.61773324838586,-0.7021107600647535,34.28633655003502
207.86773324838586,-0.7005583710163609,34.28560185275725
208.11773324838586,-0.6994022039366864,34.28595166950588
208.36773324838586,-0.6976683274048013,34.28632129752481
208.61773324838586,-0.6886029113844294,34.29191255282715
208.86773324838586,-0.6793346327686703,34.298588023569
209.11773324838586,-0.6793136269468901,34.29896995578603
209.36773324838586,-0.6783301351174403,34.29934924571099
209.61773324838586,-0.6776730998900069,34.29954458785342
209.86773324838586,-0.6737740421693584,34.30111688639141
210.11773324838586,-0.6654618435783709,34.306143439380804
210.36773324838586,-0.6582935616220935,34.3120612563507
210.61773324838586,-0.6565088637160332,34.31279285143535
210.86773324838586,-0.6556142083497608,34.31248706041577
211.11773324838586,-0.6547833332416477,34.312600183976606
211.36773324838586,-0.6527732568933653,34.31323523310312
211.61773324838586,-0.6460911724259644,34.31633453794834
211.86773324838586,-0.6361597939833731,34.32253772398868
212.11773324838586,-0.6328591972269354,34.3254408319693
212.36773324838586,-0.6320497250766617,34.32561364440101
212.61773324838586,-0.6312005326943959,34.32514591260959
212.86773324838586,-0.6291208985480513,34.326340231543604
213.11773324838586,-0.6168533858415705,34.333267578538994
213.36773324838586,-0.6101781823913897,34.33673859329817
213.61773324838586,-0.6083043178080995,34.336318746619206
213.86773324838586,-0.6068887073062748,34.33591686122013
214.11773324838586,-0.6053916360661679,34.33662781458355
214.36773324838586,-0.5988294287671669,34.338455476329024
214.61773324838586,-0.5879844249497344,34.344523893658746
214.86773324838586,-0.5823797453550019,34.34795510230378
215.11773324838586,-0.5817049966471869,34.34716221180063
215.36773324838586,-0.5807157988711183,34.34689850812315
215.61773324838586,-0.5810287995510895,34.34793080031506
215.86773324838586,-0.5683289504813884,34.3547554489014
216.11773324838586,-0.5576599428726902,34.35985864778623
216.36773324838586,-0.5563628278964654,34.359849397488176
216.61773324838586,-0.5552330182002803,34.359272645281415
216.86773324838586,-0.5543741526456317,34.35924235356934
217.11773324838586,-0.5528886772856904,34.35937476374095
217.36773324838586,-0.5530153172864233,34.359318761541886
217.61773324838586,-0.5458169323761011,34.36247834572214
217.86773324838586,-0.5297795022292939,34.36933222633581
218.11773324838586,-0.5284129419791418,34.37176890291006
218.36773324838586,-0.5286292674510733,34.37188504589788
218.61773324838586,-0.5274385509183381,34.37147605803229
218.86773324838586,-0.5265540218373289,34.37134539731345
219.11773324838586,-0.5257061929912813,34.37159334339891
219.36773324838586,-0.5254911898561637,34.372170406214195
219.61773324838586,-0.5153666932379791,34.378145133946276
219.86773324838586,-0.5064500124933395,34.38246896746685
220.11773324838586,-0.5048870435915422,34.382433751786984
220.36773324838586,-0.5044351306790112,34.38254931564912
220.61773324838586,-0.5040405172080438,34.38272004977255
220.86773324838586,-0.5037018623575882,34.38249652630656
221.11773324838586,-0.5025830993120846,34.38226306701325
221.36773324838586,-0.5020820996681499,34.38207168975334
221.61773324838586,-0.5004567949699471,34.38362889451426
221.86773324838586,-0.4906120543875573,34.38961170260526
222.11773324838586,-0.48102051842716664,34.39277477988452
222.36773324838586,-0.47774558683268,34.393606233380034
222.61773324838586,-0.47818804848164764,34.39418567830925
222.86773324838586,-0.4776665715768713,34.39406272129892
223.11773324838586,-0.47682479475945194,34.39377929014099
223.36773324838586,-0.4754668767089726,34.39374080109944
223.61773324838586,-0.475394809559246,34.393847248236874
223.86773324838586,-0.46866458801385047,34.39650963020451
224.11773324838586,-0.4539882768235563,34.40224677241687
224.36773324838586,-0.45280182092386045,34.40493497536124
224.61773324838586,-0.45333644959504743,34.40513529032649
224.86773324838586,-0.4522027861120208,34.40489226498046
225.11773324838586,-0.451321458832408,34.404660760416235
225.36773324838586,-0.4505756372928884,34.404250942935896
225.61773324838586,-0.45066808559572624,34.40541224849394
225.86773324838586,-0.44215984938969866,34.410859386317085
226.11773324838586,-0.43153814485118175,34.41528623101678
226.36773324838586,-0.42725331651176535,34.41620250437073
226.61773324838586,-0.4272408868347224,34.41690925133011
226.86773324838586,-0.42689488043974755,34.417087775432975
227.11773324838586,-0.4262888214585855,34.416813837247346
227.36773324838586,-0.425360799790846,34.4164386505725
227.61773324838586,-0.424529520249451,34.416470490088166
227.86773324838586,-0.4232321349630878,34.417231609866775
228.11773324838586,-0.41738121838471115,34.419202107825235
228.36773324838586,-0.4077141418355396,34.42516904109992
228.61773324838586,-0.39918342229311676,34.42922158421729
228.86773324838586,-0.3955881757581068,34.429204263344396
229.11773324838586,-0.39579659587299393,34.429581046205875
229.36773324838586,-0.3954219197354642,34.42955768251031
229.61773324838586,-0.3943724165516158,34.4294593665307
229.86773324838586,-0.39308906239437896,34.42979164539876
230.11773324838586,-0.3924258570332671,34.42969725970985
230.36773324838586,-0.3899016507700136,34.43049785039038
230.61773324838586,-0.37875138120313845,34.43745648650711
230.86773324838586,-0.37352379952015385,34.440476898079304
231.11773324838586,-0.3725935946293933,34.439946577289824
231.36773324838586,-0.36901426884851235,34.440641063917475
231.61773324838586,-0.36575169178413425,34.441209246418076
231.86773324838586,-0.36380807942303506,34.44068650136691
232.11773324838586,-0.36226046673950546,34.440251823145964
232.36773324838586,-0.36139690731602736,34.44119343041512
232.61773324838586,-0.35542531156982465,34.444291896192254
232.86773324838586,-0.33942423550958584,34.44919870146535
233.11773324838586,-0.33169266019625204,34.453093524649205
233.36773324838586,-0.32904356060166656,34.45381689098369
233.61773324838586,-0.3249172275451806,34.45382890978531
233.86773324838586,-0.31949526876120665,34.45507913442555
234.11773324838586,-0.31580237324765287,34.45556592780675
234.36773324838586,-0.3149690880441722,34.45602152448126
234.61773324838586,-0.3144618519678601,34.45586304204379
234.86773324838586,-0.3135493716952208,34.455367801688396
235.11773324838586,-0.31302368324456215,34.45555317940399
235.36773324838586,-0.31236719867479823,34.45595624778739
235.61773324838586,-0.31024035528067756,34.45543216214925
235.86773324838586,-0.3034113141330163,34.46170383535294
236.11773324838586,-0.29665455814150493,34.467249827553054
236.36773324838586,-0.293113395115953,34.46591116396988
236.61773324838586,-0.2876538837652003,34.46824364820543
236.86773324838586,-0.2848056810044431,34.467927604381984
237.11773324838586,-0.2802995113448659,34.467575883080734
237.36773324838586,-0.2761021764638742,34.46850409875957
237.61773324838586,-0.2758260519377726,34.46863594004545
237.86773324838586,-0.2749783979238067,34.468387998705026
238.11773324838586,-0.2741732799699311,34.468469055041616
238.36773324838586,-0.27312876418801624,34.468286614982816
238.61773324838586,-0.27223022422556575,34.46781758523522
238.86773324838586,-0.26991233452485003,34.46754448762805
239.11773324838586,-0.2625083272409973,34.46909736101034
239.36773324838586,-0.2533005949529739,34.476810586535976
