Depth,Temperature,Salinity
205.66955596265763,-1.5453510767450827,33.05833512381493
205.91955596265763,-1.5453510364116714,33.06115939044084
206.16955596265763,-1.5451440602825808,33.064522122186645
206.41955596265763,-1.545001690268393,33.06820675759589
206.66955596265763,-1.5447541143633923,33.07265043975975
206.91955596265763,-1.5443126633111544,33.07842079550168
207.16955596265763,-1.544188763682037,33.084646626039365
207.41955596265763,-1.5440304667761253,33.08875209165112
207.66955596265763,-1.5437254834503715,33.09093461726529
207.91955596265763,-1.5433867474321623,33.09258419220642
208.16955596265763,-1.5430956975024568,33.09442483721699
208.41955596265763,-1.5428621601126933,33.09670656882323
208.66955596265763,-1.5426857849960325,33.10023196281214
208.91955596265763,-1.5424325773632896,33.104269762137044
209.16955596265763,-1.5418302927214316,33.109107815909645
209.41955596265763,-1.541022499354299,33.11522203822124
209.66955596265763,-1.5405899825324785,33.1209823387931
209.91955596265763,-1.5400853354385733,33.12507270531019
210.16955596265763,-1.539662295483132,33.12828260433668
210.41955596265763,-1.5393231288058316,33.13147988130584
210.66955596265763,-1.5387903710768334,33.13519033980724
210.91955596265763,-1.537990951444688,33.140382829318135
211.16955596265763,-1.5367674605510475,33.14698425757083
211.41955596265763,-1.536017607642501,33.15095229447853
211.66955596265763,-1.5359560073771006,33.15190229244144
211.91955596265763,-1.5359563828682483,33.15221320537875
212.16955596265763,-1.5358151122494204,33.152694005041305
212.41955596265763,-1.5356056091233055,33.15863399038203
212.66955596265763,-1.535097675262818,33.1646400149388
212.91955596265763,-1.534606698696989,33.16696519403944
213.16955596265763,-1.534466496413815,33.16853433717878
213.41955596265763,-1.5342024526867462,33.1714887807454
213.66955596265763,-1.5340910285732536,33.17436074367661
213.91955596265763,-1.5334847548826005,33.17828978036543
214.16955596265763,-1.5325997371667017,33.18255185567256
214.41955596265763,-1.5321330958583663,33.18512117819317
214.66955596265763,-1.5316204903267816,33.186992054440815
214.91955596265763,-1.5309538872907973,33.189212183205846
215.16955596265763,-1.530136186099446,33.192355362715595
215.41955596265763,-1.5291755013132418,33.195876688331836
215.66955596265763,-1.5282081538224628,33.19880131691841
215.91955596265763,-1.5274204448987045,33.20157222277286
216.16955596265763,-1.5264908152944971,33.206597759063115
216.41955596265763,-1.525347472607524,33.21185173175676
216.66955596265763,-1.5239775869616077,33.2168742309506
216.91955596265763,-1.5226090978344637,33.22243450709876
217.16955596265763,-1.5216400438893212,33.22668915762403
217.41955596265763,-1.520206432134542,33.23150559887163
217.66955596265763,-1.5186812082966126,33.236510484057185
217.91955596265763,-1.5172643388859293,33.24110275736429
218.16955596265763,-1.5156850193637648,33.245421520326346
218.41955596265763,-1.5140857547806417,33.249473441557306
218.66955596265763,-1.5120041295925288,33.25488317184902
218.91955596265763,-1.5101199736119026,33.25882520709132
219.16955596265763,-1.5084715949611311,33.26240530614242
219.41955596265763,-1.5064655011072674,33.26803119071879
219.66955596265763,-1.5045167037485676,33.27205961713529
219.91955596265763,-1.5029895057134106,33.27792166621385
220.16955596265763,-1.5015637362033885,33.28329619831747
220.41955596265763,-1.5002279449644895,33.286746529193586
220.66955596265763,-1.499213758225949,33.29022015199345
220.91955596265763,-1.4981569220200084,33.29345511824237
221.16955596265763,-1.497057162383302,33.29658730845191
221.41955596265763,-1.495543252000613,33.301909898812774
221.66955596265763,-1.493863967646757,33.30814866813501
221.91955596265763,-1.4924071876344027,33.31234303692054
222.16955596265763,-1.4901972742482827,33.31760286421176
222.41955596265763,-1.4873537273540247,33.32508824881288
222.66955596265763,-1.4851419962306842,33.33226095374792
222.91955596265763,-1.483843401801752,33.336668681612906
223.16955596265763,-1.482495183713351,33.33885005500055
223.41955596265763,-1.4809426730615283,33.34178966646347
223.66955596265763,-1.4787427687127663,33.34912349100304
223.91955596265763,-1.476574919707441,33.35604769851801
224.16955596265763,-1.4747694459699994,33.3595472576055
224.41955596265763,-1.4725976617570409,33.36383005751272
224.66955596265763,-1.4702622950841604,33.36755404077639
224.91955596265763,-1.4665422661464778,33.37303199706712
225.16955596265763,-1.4626657931591585,33.37976485977567
225.41955596265763,-1.4599381303312917,33.38552113813373
225.66955596265763,-1.4569178810980525,33.39106434980879
225.91955596265763,-1.4534363398283385,33.39836373509215
226.16955596265763,-1.448692046663501,33.4066548207865
226.41955596265763,-1.4441529414566152,33.414072815811316
226.66955596265763,-1.4414025931520282,33.41979372528402
226.91955596265763,-1.4387792468269474,33.42459928521101
227.16955596265763,-1.4357077540090484,33.42953436970164
227.41955596265763,-1.4326505369909606,33.43519819525655
227.66955596265763,-1.4300411139926785,33.43981951149276
227.91955596265763,-1.4274520667704143,33.4432557814609
228.16955596265763,-1.4239390450817484,33.449358758226516
228.41955596265763,-1.4198071423256864,33.45609815850527
228.66955596265763,-1.4156052406290123,33.46427089944513
228.91955596265763,-1.4118420044316022,33.47336725774949
229.16955596265763,-1.408697512774519,33.480956694940716
229.41955596265763,-1.4059258713630374,33.48616065980363
229.66955596265763,-1.4034053522528747,33.48941349053047
229.91955596265763,-1.4002859512407608,33.49395727985349
230.16955596265763,-1.397325389890764,33.498848913911054
230.41955596265763,-1.3950226854780652,33.50233246049398
230.66955596265763,-1.3914164676000012,33.50771760355797
230.91955596265763,-1.387721360439316,33.512791925220256
231.16955596265763,-1.3808423758086021,33.52429661085204
231.41955596265763,-1.3717398921769222,33.54109562334104
231.66955596265763,-1.3655605900473486,33.55347822321984
231.91955596265763,-1.3619428191826093,33.561511886791806
232.16955596265763,-1.359978860267398,33.56456220719564
232.41955596265763,-1.358179916587932,33.56717761362064
232.66955596265763,-1.3560694291197668,33.5712606515985
232.91955596265763,-1.354131698561576,33.57363351857038
233.16955596265763,-1.3514799498595385,33.576486555703944
233.41955596265763,-1.3491422141278377,33.5795497984877
233.66955596265763,-1.3467072498865456,33.58259404684854
233.91955596265763,-1.3434829888436937,33.58639892763458
234.16955596265763,-1.3401443398968236,33.59104649014636
234.41955596265763,-1.336929788358423,33.59496289147477
234.66955596265763,-1.333207717988041,33.60084492989619
234.91955596265763,-1.3286780508068647,33.6070196324909
235.16955596265763,-1.322256532740476,33.61450073322899
235.41955596265763,-1.313281363120989,33.628989986800576
235.66955596265763,-1.30732648023762,33.639213544734076
235.91955596265763,-1.3041403607488133,33.64395959485685
236.16955596265763,-1.3016383994906406,33.64680602869812
236.41955596265763,-1.298819626519296,33.64948130850163
236.66955596265763,-1.2943240157913933,33.65376339722241
236.91955596265763,-1.2872099729205062,33.66382384177022
237.16955596265763,-1.2820892664888364,33.672299524575934
237.41955596265763,-1.2782592970473237,33.67902059863449
237.66955596265763,-1.272314141382944,33.6884019112874
237.91955596265763,-1.2674886112411485,33.69450334367999
238.16955596265763,-1.260456077636769,33.703300307421415
238.41955596265763,-1.2542496943202233,33.71122982031389
238.66955596265763,-1.2508961726352321,33.71574836433314
238.91955596265763,-1.247192101064594,33.721288440406646
239.16955596265763,-1.2419092620383891,33.72829411289452
239.41955596265763,-1.2333991011391812,33.74025414137448
239.66955596265763,-1.223295337079283,33.755603446883704
239.91955596265763,-1.2146445374060653,33.76955502139446
240.16955596265763,-1.2079403696072553,33.779971073553604
240.41955596265763,-1.200973973881576,33.788140373197955
240.66955596265763,-1.193352056045653,33.79840105338376
240.91955596265763,-1.1866598267784625,33.80878885345178
241.16955596265763,-1.1800259116340517,33.818384760971995
241.41955596265763,-1.1706992086781531,33.83158260534626
241.66955596265763,-1.1631251440660153,33.84317929292076
241.91955596265763,-1.1567813679922063,33.8538884110836
242.16955596265763,-1.150098234877253,33.86466358928102
242.41955596265763,-1.143646677975823,33.874029377593025
242.66955596265763,-1.1387155630735977,33.881405914553994
242.91955596265763,-1.1342885078672815,33.88796854201273
243.16955596265763,-1.1295481925503306,33.89421535637923
243.41955596265763,-1.125018810534606,33.899331773135245
243.66955596265763,-1.1216173755484125,33.90280512415184
243.91955596265763,-1.1187774104369377,33.906332755208176
244.16955596265763,-1.1160831806256486,33.90945403376294
244.41955596265763,-1.1126218337791687,33.913284290737245
244.66955596265763,-1.1082702633546022,33.91816278855029
244.91955596265763,-1.1037359772286015,33.92263524094968
245.16955596265763,-1.09825824214433,33.92825148495387
245.41955596265763,-1.0936072153947687,33.93305220440173
245.66955596265763,-1.0899059936180633,33.936058252315085
245.91955596265763,-1.0859344672405653,33.93880805346512
246.16955596265763,-1.0808386327610247,33.943423691189615
246.41955596265763,-1.07383969165947,33.950213901307336
246.66955596265763,-1.0671120312684843,33.957389884780135
246.91955596265763,-1.0618929919848081,33.96361112022679
247.16955596265763,-1.0577655455685013,33.967788221302605
247.41955596265763,-1.052828911964412,33.97081917811424
247.66955596265763,-1.0433395876476912,33.979177369724866
247.91955596265763,-1.0331715033557929,33.98834189711522
248.16955596265763,-1.024510883387226,33.996093129028324
248.41955596265763,-1.0160223806316435,34.00443775772486
248.66955596265763,-1.0067722743661929,34.0129550652282
248.91955596265763,-0.9962235405793356,34.02057675465819
249.16955596265763,-0.9896444143601405,34.02679956328523
249.41955596265763,-0.9866395140130277,34.031067860373504
249.66955596265763,-0.9823854104488638,34.03393582694325
249.91955596265763,-0.9778376730120453,34.03774968083987
250.16955596265763,-0.9728339945123424,34.041469018395446
250.41955596265763,-0.968245581965392,34.044006520098996
250.66955596265763,-0.9638394250205933,34.04642033883644
250.91955596265763,-0.9583853958032175,34.05021704966358
251.16955596265763,-0.9532416222671705,34.05375953750638
251.41955596265763,-0.9483121141175691,34.0566284094251
251.66955596265763,-0.9438306661132765,34.058832731285186
251.91955596265763,-0.939533326741259,34.06132005933532
252.16955596265763,-0.9331183619373115,34.066129167021145
252.41955596265763,-0.9230675634088296,34.07266824990348
252.66955596265763,-0.9112934534384803,34.08194606539401
252.91955596265763,-0.9010982213507343,34.09200554193935
253.16955596265763,-0.8944741842810351,34.097962512117576
253.41955596265763,-0.8910001228387382,34.10148588800594
253.66955596265763,-0.8872806577609894,34.104666494286185
253.91955596265763,-0.8833886082957829,34.108190220593094
254.16955596265763,-0.8791342348758678,34.11179095296601
254.41955596265763,-0.8711055626902039,34.11546763381196
254.66955596265763,-0.8647447122492107,34.11996031235074
254.91955596265763,-0.8615790359183424,34.12343202336674
255.16955596265763,-0.859685594850843,34.12492525906607
255.41955596265763,-0.8564626002802257,34.1263868795372
255.66955596265763,-0.8506544923202087,34.13026967989915
255.91955596265763,-0.8455091782191685,34.13420625862976
256.1695559626576,-0.8420322249096607,34.13662544815807
256.4195559626576,-0.8394318408453115,34.13812374175317
256.6695559626576,-0.836710563866477,34.13987557252252
256.9195559626576,-0.8324306370712364,34.14174189732125
257.1695559626576,-0.8262240728359309,34.1450777310081
257.4195559626576,-0.8208196362695573,34.14819946834129
257.6695559626576,-0.8174925393897761,34.14981129408465
257.9195559626576,-0.8123882888469135,34.15347479477787
258.1695559626576,-0.8066665491792455,34.157761674643254
258.4195559626576,-0.7972810577379155,34.16337353597214
258.6695559626576,-0.7847337421943092,34.17071575953773
258.9195559626576,-0.7758395755145061,34.177432090693564
259.1695559626576,-0.7727784942292276,34.18138053317598
259.4195559626576,-0.771942301835204,34.182513995560015
259.6695559626576,-0.7710797981068663,34.18289846096287
259.9195559626576,-0.7693805710317233,34.18388764435176
260.1695559626576,-0.766427053406891,34.1848099758267
260.4195559626576,-0.764635375123448,34.18570034462108
260.6695559626576,-0.7629707881564936,34.18694485483737
260.9195559626576,-0.759777691352625,34.18787850868489
261.1695559626576,-0.7537955436088644,34.1897875853955
261.4195559626576,-0.7455517562210874,34.19527207575439
261.6695559626576,-0.7417275224266097,34.197767648193796
261.9195559626576,-0.7379017137166333,34.19988185467721
262.1695559626576,-0.7312950836299569,34.20356729559684
262.4195559626576,-0.7245612065672489,34.206905290380284
262.6695559626576,-0.7171168789122899,34.21157881110513
262.9195559626576,-0.7139387387585531,34.21499259204097
263.1695559626576,-0.7132382778835101,34.21589559363476
263.4195559626576,-0.7103307458248245,34.216182088987914
263.6695559626576,-0.7053429721350438,34.21822952571914
263.9195559626576,-0.7006281254951956,34.22151901656043
264.1695559626576,-0.6893215695892217,34.22660797861457
264.4195559626576,-0.6793422518887499,34.233524790259565
264.6695559626576,-0.677180656400391,34.23967907281036
264.9195559626576,-0.6733549050085136,34.242268776104446
265.1695559626576,-0.6684745235201549,34.24474658490707
265.4195559626576,-0.6638488359368543,34.24847819023016
265.6695559626576,-0.660285034971978,34.2512585709023
265.9195559626576,-0.6568992314837389,34.25214768910674
266.1695559626576,-0.6514830336847703,34.2545710345204
266.4195559626576,-0.6483147309409075,34.257023200493585
266.6695559626576,-0.6468090750666686,34.25842488593476
266.9195559626576,-0.6447161402296058,34.25953010126822
267.1695559626576,-0.6424090007306328,34.26126757046241
267.4195559626576,-0.6401536361444984,34.262878850585984
267.6695559626576,-0.6375236384092197,34.26439875357613
267.9195559626576,-0.6345158020124801,34.2662913282817
268.1695559626576,-0.6312079064605087,34.26858948548016
268.4195559626576,-0.627755961193399,34.270619678574114
268.6695559626576,-0.6258128666985903,34.27177608597565
268.9195559626576,-0.6237019811214704,34.272562017646884
269.1695559626576,-0.6209687578881677,34.27374808573115
269.4195559626576,-0.6189358238321221,34.2751236970487
269.6695559626576,-0.617446427430684,34.275905240754746
269.9195559626576,-0.6147552368736839,34.27767879817455
270.1695559626576,-0.6116953719469079,34.28025080016982
270.4195559626576,-0.6076671654330024,34.282004701716005
270.6695559626576,-0.6024557611084104,34.283095508842464
270.9195559626576,-0.5999978036661001,34.285590446587925
271.1695559626576,-0.5993040725197452,34.28545747801904
271.4195559626576,-0.5973914554410392,34.28518718411465
271.6695559626576,-0.5931858062461565,34.287319076655606
271.9195559626576,-0.5882549287293435,34.290122039193
272.1695559626576,-0.5838811844236994,34.2925078269987
272.4195559626576,-0.5776635918050673,34.29523928577989
272.6695559626576,-0.5717328169988773,34.298528161000554
272.9195559626576,-0.566641076485972,34.301515094579116
273.1695559626576,-0.5592619490009197,34.303615795810366
273.4195559626576,-0.5527865187066348,34.30597269006383
273.6695559626576,-0.5490124747678402,34.308375276694115
273.9195559626576,-0.546369922713126,34.30996942015197
274.1695559626576,-0.543698796652792,34.310488836667346
274.4195559626576,-0.5422493006605228,34.31066926162361
274.6695559626576,-0.5403073771446709,34.31127335782122
274.9195559626576,-0.5377483864425726,34.3117063417455
275.1695559626576,-0.5345241202554629,34.313045561300505
275.4195559626576,-0.5296861811028574,34.315795253237596
275.6695559626576,-0.5223398566040359,34.31738015519515
275.9195559626576,-0.512588617447734,34.32182906308675
276.1695559626576,-0.5054337141584101,34.32610330381582
276.4195559626576,-0.5027144710166742,34.32794342364128
276.6695559626576,-0.4993297428639165,34.32993607401882
276.9195559626576,-0.49130985799331817,34.33126270518123
277.1695559626576,-0.4845940991077228,34.333791464232014
277.4195559626576,-0.48154591510968514,34.33640870081638
277.6695559626576,-0.47972115697464957,34.33752510136805
277.9195559626576,-0.4773342723606756,34.338143947381084
278.1695559626576,-0.4747713870650474,34.33802882764551
278.4195559626576,-0.4714032539251843,34.338997687067035
278.6695559626576,-0.4672245085412074,34.34091312272109
278.9195559626576,-0.4624059265432873,34.3426346841276
279.1695559626576,-0.4564183652881436,34.34478334941594
279.4195559626576,-0.4505986624064961,34.34672172819636
279.6695559626576,-0.4460013815113407,34.34832105416771
279.9195559626576,-0.44300789394112744,34.349385427154814
280.1695559626576,-0.4389872689576511,34.35036310049749
280.4195559626576,-0.42995898182991704,34.35290435569578
280.6695559626576,-0.42522526236078384,34.355465697766654
280.9195559626576,-0.4235305390063627,34.35659066386211
281.1695559626576,-0.4187815324831734,34.35773309071594
281.4195559626576,-0.4108261628185533,34.36074184440234
281.6695559626576,-0.4042426477855099,34.36324443186556
281.9195559626576,-0.3976404435101227,34.3648369515206
282.1695559626576,-0.3884267614766569,34.36833002358749
282.4195559626576,-0.378307682397592,34.37333007962243
282.6695559626576,-0.37148786402078554,34.37612058392848
282.9195559626576,-0.3668811539296105,34.378464431231016
283.1695559626576,-0.3627162535654974,34.38046587463831
283.4195559626576,-0.356795194288886,34.383146290203975
283.6695559626576,-0.3500093637688012,34.38676231961127
283.9195559626576,-0.3463403508407013,34.38934097090433
284.1695559626576,-0.34427351055982175,34.39113748033476
284.4195559626576,-0.3427443955135862,34.39222950761343
284.6695559626576,-0.34140208948331147,34.392919586647
284.9195559626576,-0.33994049150777916,34.39351976383986
285.1695559626576,-0.3379382225989096,34.39383290623307
285.4195559626576,-0.33452247962861054,34.39483989293624
285.6695559626576,-0.3313502663341803,34.39601254424386
285.9195559626576,-0.32929260192267534,34.3966583186279
286.1695559626576,-0.32704876354192075,34.39703131012305
286.4195559626576,-0.3245476058472532,34.397216719008604
286.6695559626576,-0.32212502660095677,34.397413095441024
286.9195559626576,-0.3191796889091978,34.39807585538317
287.1695559626576,-0.3154656277038568,34.39926306221563
287.4195559626576,-0.3104119590644293,34.400899620371355
287.6695559626576,-0.2994287069472376,34.40446362413854
287.9195559626576,-0.28674280146500203,34.40944752931795
288.1695559626576,-0.2774472025392568,34.41432808105068
288.4195559626576,-0.2716693202810475,34.41786199173345
288.6695559626576,-0.2666805383770015,34.41974060574694
288.9195559626576,-0.2629696656500827,34.421008089352654
289.1695559626576,-0.2600382394872292,34.42231583650337
289.4195559626576,-0.2565380418030707,34.42333381024041
289.6695559626576,-0.2512679270402257,34.42483386995428
289.9195559626576,-0.24371484085253894,34.42927048078084
290.1695559626576,-0.23561903685779498,34.432501230281254
290.4195559626576,-0.2284358667488702,34.435668061022774
290.6695559626576,-0.22107749424215517,34.439961520822685
290.9195559626576,-0.2131360642320826,34.44279452903381
291.1695559626576,-0.2100092306325394,34.44430036000864
291.4195559626576,-0.20887732949648716,34.44548554483178
291.6695559626576,-0.20627775187256128,34.44624633518844
291.9195559626576,-0.2027920852573938,34.446638428502126
292.1695559626576,-0.20099226995963687,34.44756904035829
292.4195559626576,-0.19948269034458166,34.44748051891406
292.6695559626576,-0.19685846929620587,34.44813218540972
292.9195559626576,-0.1924003833564719,34.450077083106166
293.1695559626576,-0.1864945710690442,34.451893988773456
293.4195559626576,-0.180280379211066,34.45416817575774
