Depth,Temperature,Salinity
161.06590535921208,-1.4280294828028095,33.15327500437027
161.31590535921208,-1.425314803936001,33.16862011687589
161.56590535921208,-1.4218196054066627,33.182552675072834
161.81590535921208,-1.4204016073205876,33.191393414622354
162.06590535921208,-1.4209618157932973,33.19655954509047
162.31590535921208,-1.4209519597751752,33.20362104382553
162.56590535921208,-1.4205875029833823,33.21216572112147
162.81590535921208,-1.4199895450605522,33.216080914647996
163.06590535921208,-1.4194421656464935,33.21872020442578
163.31590535921208,-1.418948452856027,33.22703210074448
163.56590535921208,-1.4177335914053624,33.23693317945002
163.81590535921208,-1.4163557158891633,33.24391145205626
164.06590535921208,-1.415455228346991,33.24754007125293
164.31590535921208,-1.414943825365687,33.25077822501845
164.56590535921208,-1.4142416024078943,33.255409050659615
164.81590535921208,-1.413283161212533,33.25793846831078
165.06590535921208,-1.412194631565822,33.261403992812745
165.31590535921208,-1.4109785806078075,33.26761538123865
165.56590535921208,-1.4097782728574826,33.27438876252903
165.81590535921208,-1.408989850093506,33.279183594728906
166.06590535921208,-1.4083414866707316,33.282832969585925
166.31590535921208,-1.407664579367207,33.28748280181752
166.56590535921208,-1.4068638148921844,33.29202465955481
166.81590535921208,-1.4057960580387716,33.29494911321907
167.06590535921208,-1.4044089586383348,33.30236320436411
167.31590535921208,-1.402717587589151,33.313929381011846
167.56590535921208,-1.40134954417577,33.32322746575312
167.81590535921208,-1.4004285508022825,33.327673702827454
168.06590535921208,-1.3991134432206271,33.33308137597804
168.31590535921208,-1.398010993140763,33.34069659104101
168.56590535921208,-1.3969118673406216,33.34719500111681
168.81590535921208,-1.395967459285438,33.3511882201553
169.06590535921208,-1.3955239055583537,33.35555426631472
169.31590535921208,-1.3943776073952332,33.362823252816106
169.56590535921208,-1.3926865452540942,33.36898847919769
169.81590535921208,-1.3914873684179896,33.37320413363408
170.06590535921208,-1.3911900790596872,33.37686106494431
170.31590535921208,-1.3908962307005361,33.379423758205974
170.56590535921208,-1.3900130639622916,33.3831840294019
170.81590535921208,-1.3889459319747366,33.38737259262065
171.06590535921208,-1.3879791769764904,33.390065068470584
171.31590535921208,-1.386998761613609,33.3918564311559
171.56590535921208,-1.3860038279613778,33.39681165306518
171.81590535921208,-1.3836734295457531,33.40728115202933
172.06590535921208,-1.3809551459148173,33.417083671378414
172.31590535921208,-1.3793395726605486,33.42193070301727
172.56590535921208,-1.3784818838899486,33.42583260800381
172.81590535921208,-1.3775602331612733,33.4293752426822
173.06590535921208,-1.3763381670536845,33.43428922575088
173.31590535921208,-1.3753259658181054,33.43890862231678
173.56590535921208,-1.3748345959569708,33.44133173598088
173.81590535921208,-1.373929015858402,33.4467991745725
174.06590535921208,-1.3723680970035943,33.45351094307909
174.31590535921208,-1.3707153914689756,33.45871453023492
174.56590535921208,-1.3693817756616231,33.46250462114348
174.81590535921208,-1.3682599174636967,33.466815721700904
175.06590535921208,-1.36766266810992,33.471797544289934
175.31590535921208,-1.3658491160495843,33.477511493741495
175.56590535921208,-1.3628553653548332,33.48503122228494
175.81590535921208,-1.3601320148893525,33.49378710713828
176.06590535921208,-1.3571012227652566,33.499474395268756
176.31590535921208,-1.3550808357994872,33.50343561457501
176.56590535921208,-1.3538087570109765,33.5075830056709
176.81590535921208,-1.3521965044692392,33.51257204804792
177.06590535921208,-1.3503018078966338,33.518140975231034
177.31590535921208,-1.34845466005165,33.52379067471173
177.56590535921208,-1.3447384820864763,33.53491480598109
177.81590535921208,-1.3402395793182214,33.546186717499815
178.06590535921208,-1.3375060942367485,33.550538538311386
178.31590535921208,-1.3350943150991195,33.55765967805028
178.56590535921208,-1.3331981210181776,33.56348192425969
178.81590535921208,-1.3317233526723322,33.56587249136283
179.06590535921208,-1.3305743173313196,33.56737157762198
179.31590535921208,-1.3295125491011488,33.570168327043504
179.56590535921208,-1.3276647278616989,33.57289664847044
179.81590535921208,-1.3262980436905025,33.575915466172866
180.06590535921208,-1.3250480929632897,33.578143189088074
180.31590535921208,-1.3234249257836879,33.57977313605276
180.56590535921208,-1.32211143337655,33.58345818497214
180.81590535921208,-1.3192856513472107,33.587354123279695
181.06590535921208,-1.3171829329457345,33.59263071446949
181.31590535921208,-1.3150532976276141,33.60250089851611
181.56590535921208,-1.3094229555592731,33.616934456957885
181.81590535921208,-1.3054588446072808,33.628991376525754
182.06590535921208,-1.3024437172319028,33.637163090318445
182.31590535921208,-1.298743913240225,33.6422477871079
182.56590535921208,-1.2941500670148527,33.64789049227103
182.81590535921208,-1.2891291351562146,33.65745906618692
183.06590535921208,-1.2864849305747115,33.65917041061025
183.31590535921208,-1.2830755320743912,33.66401883378434
183.56590535921208,-1.2762349847338488,33.67772444267492
183.81590535921208,-1.2680070596722077,33.68925854114173
184.06590535921208,-1.2615458996243833,33.694874125821904
184.31590535921208,-1.2567903897211201,33.701476393103064
184.56590535921208,-1.2538732018198666,33.705929804208914
184.81590535921208,-1.2513686448180572,33.708461236748136
185.06590535921208,-1.2469807089304938,33.71749813470327
185.31590535921208,-1.2440417438852518,33.72231280836993
185.56590535921208,-1.2418880979411269,33.7233338320387
185.81590535921208,-1.2399375971885835,33.72651652466797
186.06590535921208,-1.2373365675901864,33.734256935606474
186.31590535921208,-1.2306511987834388,33.74298568568387
186.56590535921208,-1.2235262686886583,33.7481759574111
186.81590535921208,-1.2185045660854965,33.753098504147424
187.06590535921208,-1.2152209200919295,33.75938119730673
187.31590535921208,-1.212459281338262,33.76227073939847
187.56590535921208,-1.2097025274031097,33.76647255386559
187.81590535921208,-1.207079939336084,33.77059489900175
188.06590535921208,-1.204794257123548,33.773321774829796
188.31590535921208,-1.2029281794860556,33.77585375231291
188.56590535921208,-1.2010937195144682,33.77860687845261
188.81590535921208,-1.1972770449135408,33.78483546775084
189.06590535921208,-1.1925011204109754,33.79069613540071
189.31590535921208,-1.1889614598328044,33.794720910477444
189.56590535921208,-1.1864916512486512,33.80044789326818
189.81590535921208,-1.1818084819758916,33.80495890962855
190.06590535921208,-1.1764229089372773,33.81235791341473
190.31590535921208,-1.1711374288606593,33.82018524137009
190.56590535921208,-1.16584336571229,33.8235640092684
190.81590535921208,-1.1633056714930816,33.82945444353459
191.06590535921208,-1.1616711591568212,33.83254871660192
191.31590535921208,-1.1595805305297753,33.83405277893465
191.56590535921208,-1.1569724553073095,33.83876744840276
191.81590535921208,-1.1534316609703994,33.84555859605555
192.06590535921208,-1.1485451428300428,33.85158172380077
192.31590535921208,-1.1450283357245143,33.854327541550596
192.56590535921208,-1.1429112352734139,33.85705144217662
192.81590535921208,-1.1401736262573166,33.86189896773126
193.06590535921208,-1.1369237425692829,33.863685214989594
193.31590535921208,-1.1315001692390838,33.87100066661953
193.56590535921208,-1.1257588614664582,33.881011062325
193.81590535921208,-1.1213068316352734,33.886981087166724
194.06590535921208,-1.1169099558772149,33.890471170127604
194.31590535921208,-1.113856227922803,33.893770801636364
194.56590535921208,-1.1104276093500187,33.899650966156244
194.81590535921208,-1.1060454374737052,33.90571612677575
195.06590535921208,-1.1019015163339763,33.90933637874526
195.31590535921208,-1.098098335006327,33.91442703448578
195.56590535921208,-1.094582014828374,33.920099551441226
195.81590535921208,-1.0917763775291767,33.924299899936294
196.06590535921208,-1.0893845974203737,33.92690092870923
196.31590535921208,-1.086355189531652,33.93019459134894
196.56590535921208,-1.0827486120127519,33.93570297934901
196.81590535921208,-1.0804092712384794,33.93634812739862
197.06590535921208,-1.078704495761581,33.93743121776155
197.31590535921208,-1.076617108085745,33.94358606097336
197.56590535921208,-1.0752296066921243,33.944600866922194
197.81590535921208,-1.0720410202920205,33.94922900468148
198.06590535921208,-1.0685163038715906,33.9546382495089
198.31590535921208,-1.0644328753671928,33.958792980093904
198.56590535921208,-1.0579518488534154,33.965578340438164
198.81590535921208,-1.0529760648650095,33.9704273345847
199.06590535921208,-1.0490876800111892,33.97388186497655
199.31590535921208,-1.0450026446869671,33.97846174711484
199.56590535921208,-1.040283392724298,33.98556209670397
199.81590535921208,-1.0353771240670044,33.99328853978436
200.06590535921208,-1.0320477707889195,33.99559304450801
200.31590535921208,-1.0303454639032121,33.99658680977531
200.56590535921208,-1.0292168029058337,33.99905866602293
200.81590535921208,-1.0275868646946111,34.00059895548822
201.06590535921208,-1.0246031807251732,34.00292535955053
201.31590535921208,-1.019208140718699,34.014807160722775
201.56590535921208,-1.0127926326493155,34.02407527462553
201.81590535921208,-1.0080865693369487,34.02479652524061
202.06590535921208,-1.0061481705010513,34.029579168370674
202.31590535921208,-1.0044947268944293,34.034057663550634
202.56590535921208,-1.0013726378913756,34.038419450809464
202.81590535921208,-0.9973829072770226,34.042026690005635
203.06590535921208,-0.9937094209051137,34.04432013545936
203.31590535921208,-0.9903637930060875,34.04829219617372
203.56590535921208,-0.9888789831590513,34.04953311585183
203.81590535921208,-0.9877994735487899,34.05057655250626
204.06590535921208,-0.9852992979449879,34.05633110992157
204.31590535921208,-0.9811385388978122,34.06614765983739
204.56590535921208,-0.9751802197488134,34.074042039677714
204.81590535921208,-0.9703815716898264,34.07836703807413
205.06590535921208,-0.9669658847060448,34.08154369962917
205.31590535921208,-0.9631929194166908,34.08581701394705
205.56590535921208,-0.95888999090218,34.090698575378156
205.81590535921208,-0.9538425042306448,34.096065251566095
206.06590535921208,-0.9493036095221239,34.098667479697724
206.31590535921208,-0.9463356971034174,34.10111889180922
206.56590535921208,-0.9449566062997727,34.10579424517049
206.81590535921208,-0.9445230506472309,34.10370452132129
207.06590535921208,-0.9424811149900855,34.1071891290941
207.31590535921208,-0.938984958373148,34.11386748139171
207.56590535921208,-0.934660855092097,34.117491857970066
207.81590535921208,-0.9288230247379512,34.123951487846504
208.06590535921208,-0.9239833549095724,34.12924753967789
208.31590535921208,-0.9197486455169763,34.13386791223683
208.56590535921208,-0.9161406651820506,34.13812935742981
208.81590535921208,-0.9135441280802988,34.141290170452855
209.06590535921208,-0.9099300510314043,34.14557229368155
209.31590535921208,-0.9065262557830931,34.14871796727334
209.56590535921208,-0.9009526537892749,34.15416645518073
209.81590535921208,-0.8939559945509054,34.16058394878421
210.06590535921208,-0.8912090791349727,34.160336697681046
210.31590535921208,-0.889365198085775,34.1622501161666
210.56590535921208,-0.8874596119905404,34.16633200556068
210.81590535921208,-0.8850089113282642,34.1694410737449
211.06590535921208,-0.8808605251957905,34.17218309981454
211.31590535921208,-0.8749335932106379,34.17781548243214
211.56590535921208,-0.8687568814633978,34.18459657772061
211.81590535921208,-0.8648776850006707,34.187941012500566
212.06590535921208,-0.8617260703328669,34.19032642855217
212.31590535921208,-0.8561172488792649,34.19638206942285
212.56590535921208,-0.8526495567886151,34.19686589275725
212.81590535921208,-0.8503043497881716,34.20035029008695
213.06590535921208,-0.8464720171296974,34.20618098046295
213.31590535921208,-0.8417185124767571,34.20824411406588
213.56590535921208,-0.8392807370567067,34.209876744876645
213.81590535921208,-0.8382328336387047,34.209655121386795
214.06590535921208,-0.8367369956951248,34.21023000383433
214.31590535921208,-0.834691742756332,34.213174965843926
214.56590535921208,-0.8319317664315862,34.21683368037875
214.81590535921208,-0.8260702008143508,34.220451444249434
215.06590535921208,-0.821779942847004,34.22207050711499
215.31590535921208,-0.8189987288377626,34.224782414710965
215.56590535921208,-0.8164484688045734,34.228626347408635
215.81590535921208,-0.8153857552960958,34.228459703347724
216.06590535921208,-0.8112558742553195,34.230378473025276
216.31590535921208,-0.8069587178753005,34.2331627270474
216.56590535921208,-0.8048526084486419,34.234397543286995
216.81590535921208,-0.8032374981518478,34.235214222711555
217.06590535921208,-0.8009915126834843,34.23729318990407
217.31590535921208,-0.7989071958867308,34.239280806540144
217.56590535921208,-0.7981820517997328,34.240269850225765
217.81590535921208,-0.7975499904477178,34.242112053751995
218.06590535921208,-0.794118754955447,34.24640960691345
218.31590535921208,-0.7891598587153669,34.248318925283606
218.56590535921208,-0.7833611351867841,34.250976946416266
218.81590535921208,-0.7783369079772886,34.255006621218946
219.06590535921208,-0.7741949011981559,34.25795565867985
219.31590535921208,-0.7677304516587383,34.261409416006956
219.56590535921208,-0.7622032415802354,34.2656474152214
219.81590535921208,-0.7590709613966139,34.26899583443756
220.06590535921208,-0.7571149401911992,34.27013153648334
220.31590535921208,-0.7548281771534308,34.269987935521875
220.56590535921208,-0.7520616312914941,34.27085259262417
220.81590535921208,-0.7503556692365303,34.271493327208916
221.06590535921208,-0.7488735335351528,34.2734825483168
221.31590535921208,-0.7450823722761705,34.27805563981802
221.56590535921208,-0.7384723572171148,34.28125878911085
221.81590535921208,-0.7314132909666852,34.283998594937394
222.06590535921208,-0.7266569775991997,34.286475752883256
222.31590535921208,-0.7203511185260362,34.29001279183404
222.56590535921208,-0.7086291056288511,34.29524105533899
222.81590535921208,-0.7006619612417498,34.297893106375625
223.06590535921208,-0.697622641881112,34.300612028521925
223.31590535921208,-0.694359117773071,34.30150933341998
223.56590535921208,-0.6878068543732656,34.30247871846005
223.81590535921208,-0.680420641321966,34.30913990918238
224.06590535921208,-0.6740061135238319,34.30848287704912
224.31590535921208,-0.6706322700693148,34.30772149106246
224.56590535921208,-0.6685062339618839,34.31160385688139
224.81590535921208,-0.6652438282576426,34.31411843772631
225.06590535921208,-0.6627164697800744,34.31310500241511
225.31590535921208,-0.6577693274160302,34.317072335608785
225.56590535921208,-0.6526580843516843,34.32093102783101
225.81590535921208,-0.6499730582122201,34.32058693801227
226.06590535921208,-0.6481625840816782,34.32162454571495
226.31590535921208,-0.6468242396698298,34.321633206627844
226.56590535921208,-0.6448700007833369,34.32344483688295
226.81590535921208,-0.6421513731723298,34.32537662358998
227.06590535921208,-0.6397338710892746,34.32474580875263
227.31590535921208,-0.6379594818970143,34.32582347254239
227.56590535921208,-0.634142014454735,34.32946551847035
227.81590535921208,-0.6306498516033815,34.33170044187705
228.06590535921208,-0.6290372236058228,34.33176813261157
228.31590535921208,-0.6274301417205155,34.33280222945875
228.56590535921208,-0.6255786161951816,34.33426778775943
228.81590535921208,-0.624188355292496,34.33534689337249
229.06590535921208,-0.6218602935390308,34.33774020425507
229.31590535921208,-0.6169791433913666,34.340457681501654
229.56590535921208,-0.6109093735030755,34.33997059699974
229.81590535921208,-0.6077925570581573,34.3418856052019
230.06590535921208,-0.6070904520690038,34.344477375765074
230.31590535921208,-0.6048667888405095,34.343779202736215
230.56590535921208,-0.598604546652138,34.343459772479115
230.81590535921208,-0.5906542434276723,34.35350679758302
231.06590535921208,-0.5820974939586769,34.35666960830189
231.31590535921208,-0.5756205198878203,34.35503595994453
231.56590535921208,-0.5701833477846164,34.35953575697577
231.81590535921208,-0.5612389118827891,34.365317405965854
232.06590535921208,-0.5547233882153557,34.368362922309096
232.31590535921208,-0.5512885209258975,34.36886340199421
232.56590535921208,-0.5486093213047128,34.36856534806199
232.81590535921208,-0.5443535831907541,34.369219035246374
233.06590535921208,-0.5380590804611282,34.37160378761207
233.31590535921208,-0.5346866373820757,34.373545758876666
233.56590535921208,-0.5309727785420837,34.37598837358515
233.81590535921208,-0.5252868790176426,34.37896584400252
234.06590535921208,-0.5211143262585234,34.379922018612504
234.31590535921208,-0.5171349201601866,34.37896242409177
234.56590535921208,-0.5119565060355359,34.38305401770099
234.81590535921208,-0.505126444360289,34.387946013484644
235.06590535921208,-0.4985343302711337,34.38837820133531
235.31590535921208,-0.4948419479747431,34.390434838110934
235.56590535921208,-0.49102773733603805,34.391465613757596
235.81590535921208,-0.48773539688603096,34.391845804291144
236.06590535921208,-0.4850133108737659,34.39216906363527
236.31590535921208,-0.4818725486185014,34.39289613859177
236.56590535921208,-0.479186108058841,34.395862807841645
236.81590535921208,-0.4756078882357362,34.39699600786021
237.06590535921208,-0.47383895905715345,34.39741340424554
237.31590535921208,-0.4719477398994323,34.39818965697263
237.56590535921208,-0.46466085835437926,34.397774945658774
237.81590535921208,-0.4618616303597367,34.40089257993121
238.06590535921208,-0.4567959682400919,34.40332347413901
238.31590535921208,-0.4466310091077075,34.4076851814896
238.56590535921208,-0.4389873139515721,34.41399476532779
238.81590535921208,-0.4370705790031964,34.409832322694804
239.06590535921208,-0.43206645130029275,34.41278642952131
239.31590535921208,-0.4268416950060301,34.416155062330375
239.56590535921208,-0.4244206545737279,34.41494027565077
239.81590535921208,-0.42183849647697835,34.4166281491725
240.06590535921208,-0.4180872254367957,34.41869184800048
240.31590535921208,-0.410719344881709,34.422484411694455
240.56590535921208,-0.4051540247509332,34.423336216438294
240.81590535921208,-0.40445761847307254,34.4206433309668
241.06590535921208,-0.4028662234202008,34.42255084409414
241.31590535921208,-0.40183133464311555,34.4244859683645
241.56590535921208,-0.39887548757340757,34.4254634344758
241.81590535921208,-0.3943179414948477,34.42762925842022
242.06590535921208,-0.3904853241017149,34.43036205591533
242.31590535921208,-0.3857458570670084,34.42944481374295
242.56590535921208,-0.3836280526307806,34.42883355307553
242.81590535921208,-0.37782251182053594,34.43170113598385
243.06590535921208,-0.3678028001572414,34.43588385958561
243.31590535921208,-0.3629194706930134,34.43745897393781
243.56590535921208,-0.36003099924978743,34.43840474486209
243.81590535921208,-0.3572358357247076,34.438270309715456
244.06590535921208,-0.35296379889138807,34.439457286954244
244.31590535921208,-0.3471870588373663,34.44295536646806
244.56590535921208,-0.34275742482459187,34.44310333291385
244.81590535921208,-0.33815616377601426,34.44138171770594
245.06590535921208,-0.33268116152327926,34.44274962683021
245.31590535921208,-0.3279736699121602,34.445454167975306
245.56590535921208,-0.32464322855251554,34.446605194888086
245.81590535921208,-0.32041084231077005,34.45104620494777
246.06590535921208,-0.3171713129893368,34.45280631129003
246.31590535921208,-0.3116550794776041,34.45425653117418
246.56590535921208,-0.30366608480796164,34.45541614343273
246.81590535921208,-0.29671037265258743,34.454135327946055
247.06590535921208,-0.28928781369253864,34.45793636690515
247.31590535921208,-0.2816276365054646,34.46182816910098
247.56590535921208,-0.2753425826354018,34.46083516825055
247.81590535921208,-0.2707072603428576,34.45926509728009
248.06590535921208,-0.2654886260139594,34.465337965105384
