Depth,Temperature,Salinity
6.196745867706022,-1.4588331367135035,27.98684532945675
6.446745867706022,-1.4566758717305106,27.986678390982725
6.696745867706022,-1.4608603513054577,27.986303425752183
6.946745867706022,-1.4610806526898716,27.984477425580224
7.196745867706022,-1.4607961544201735,27.985508992185196
7.446745867706022,-1.4608291393274522,27.987978944464846
7.696745867706022,-1.4607565313510837,27.98966862646006
7.946745867706022,-1.4603164953763237,27.99011373370266
8.19674586770602,-1.4597926138556634,27.990141184425934
8.44674586770602,-1.4595743966769048,27.99004895143734
8.69674586770602,-1.4594121895596053,27.990660493474536
8.94674586770602,-1.4590499657056197,27.990890297438465
9.19674586770602,-1.4586396084623154,27.991059171044014
9.44674586770602,-1.4583212308915354,27.991614510668185
9.69674586770602,-1.4575116989041488,27.991305996734184
9.94674586770602,-1.4565678638368487,27.99288486317731
10.19674586770602,-1.4557097750900438,27.9959236897705
10.44674586770602,-1.4552805857366162,27.998404381780997
10.69674586770602,-1.4551720229835063,27.999577712189968
10.94674586770602,-1.454631797384208,28.00089950538717
11.19674586770602,-1.4529126836711044,28.00320545288328
11.44674586770602,-1.4501349212124592,28.00993770186723
11.69674586770602,-1.4468814043792682,28.015622813888925
11.94674586770602,-1.4437895297177181,28.01928865944424
12.19674586770602,-1.4409503643027273,28.02335776463111
12.44674586770602,-1.4364678578938777,28.0345556634635
12.69674586770602,-1.4335396047763176,28.041762919501103
12.94674586770602,-1.429755487260598,28.05090938058607
13.19674586770602,-1.4250937814351146,28.066125082754652
13.44674586770602,-1.4205777168529,28.08391602429895
13.69674586770602,-1.4175379712646963,28.09586706611079
13.94674586770602,-1.4135094415096314,28.113132936573038
14.19674586770602,-1.4090933364631624,28.12889415946137
14.44674586770602,-1.4046036711254613,28.148848213280285
14.69674586770602,-1.4001213525043288,28.173559500862076
14.94674586770602,-1.3960115050104176,28.19741497664167
15.19674586770602,-1.3922969942322323,28.216171714027052
15.44674586770602,-1.386685251806409,28.248210333244284
15.69674586770602,-1.3814663807098437,28.27462863871466
15.94674586770602,-1.3763894853547844,28.30841718351621
16.19674586770602,-1.3705078788426819,28.355543521564446
16.44674586770602,-1.3643284116402796,28.397469305381865
16.69674586770602,-1.3593904604902134,28.427048479256158
16.94674586770602,-1.3566255719820928,28.448004285066887
17.19674586770602,-1.3551821204104713,28.461327855641795
17.44674586770602,-1.353801852490379,28.46586176225069
17.69674586770602,-1.3516630469256756,28.46980839500092
17.94674586770602,-1.3504794420202575,28.475672522780958
18.19674586770602,-1.3497850547182608,28.481380959658942
18.44674586770602,-1.348147754151883,28.487108227635037
18.69674586770602,-1.3443489398014186,28.496076159116747
18.94674586770602,-1.3385656376335227,28.51389425022815
19.19674586770602,-1.333559156999946,28.522976683600433
19.44674586770602,-1.3283360611774753,28.54519133214271
19.69674586770602,-1.3226448332631353,28.578868141792192
19.94674586770602,-1.3168377753386353,28.615912827402756
20.19674586770602,-1.30977821250621,28.67874202966714
20.44674586770602,-1.2981797679523612,28.82146806293693
20.69674586770602,-1.2774781212147475,29.071137296624507
20.94674586770602,-1.2566088329965928,29.267431425804507
21.19674586770602,-1.2457005086426074,29.395248848035173
21.44674586770602,-1.2392923084009213,29.47444404578004
21.69674586770602,-1.233766677101037,29.540159101616368
21.94674586770602,-1.2276992082635085,29.603845023886404
22.19674586770602,-1.220707837841037,29.631516847098332
22.44674586770602,-1.2139545936148413,29.661089793809303
22.69674586770602,-1.2114973699066915,29.67915688100603
22.94674586770602,-1.211101308040571,29.695999342852872
23.19674586770602,-1.2119227658092695,29.715209785869536
23.44674586770602,-1.2143332325617104,29.734074947183736
23.69674586770602,-1.2198221136439882,29.74384630906017
23.94674586770602,-1.2250910147697598,29.75394602992245
24.19674586770602,-1.2291164740435594,29.76333025120726
24.44674586770602,-1.233605663677135,29.7720767176761
24.69674586770602,-1.238056984426919,29.780818129514987
24.94674586770602,-1.241400738673219,29.789845457616607
25.19674586770602,-1.2435209955094788,29.797791080466986
25.44674586770602,-1.2454531806563929,29.803997039451197
25.69674586770602,-1.2476169182778003,29.809731937796748
25.94674586770602,-1.2509613134709983,29.815304383372446
26.19674586770602,-1.2574098666162257,29.821242085266945
26.44674586770602,-1.26860819902157,29.82805260454264
26.69674586770602,-1.2721894445947088,29.83279544738397
26.94674586770602,-1.2709000794353595,29.840458206127302
27.19674586770602,-1.2651079042468625,29.85088020023726
27.44674586770602,-1.2613456854795402,29.86075395696995
27.69674586770602,-1.2637108160797328,29.868497691311422
27.94674586770602,-1.2680163117787617,29.877572977950564
28.19674586770602,-1.27346040467547,29.887916493196066
28.44674586770602,-1.278335191613616,29.897363783458857
28.69674586770602,-1.28593525339854,29.90838667817295
28.94674586770602,-1.2932449340046208,29.91920689222992
29.19674586770602,-1.2957221640364294,29.928341919061605
29.44674586770602,-1.2922627362385388,29.939654365572096
29.69674586770602,-1.2862934274941666,29.951058413690028
29.94674586770602,-1.2808360157385366,29.960226057694662
30.19674586770602,-1.2787931650942799,29.970961971246815
30.44674586770602,-1.2848459446328533,29.981319476819376
30.69674586770602,-1.3000432320582764,29.98810657805958
30.94674586770602,-1.3137023329438606,29.992985475751134
31.19674586770602,-1.3205929337771825,30.000036293509616
31.44674586770602,-1.324282135563943,30.008008240978445
31.69674586770602,-1.3263328245136794,30.01639173686841
31.94674586770602,-1.327629875196708,30.02405536652145
32.19674586770602,-1.329669643157521,30.03028286706007
32.44674586770602,-1.3432109834163721,30.04068877906331
32.69674586770602,-1.3699513992700516,30.05683056160713
32.94674586770602,-1.3814008003267038,30.06723070753591
33.19674586770602,-1.381432503139319,30.07692632399506
33.44674586770602,-1.378183735270671,30.091306079879516
33.69674586770602,-1.3736468351831936,30.10943947203129
33.94674586770602,-1.363080989357375,30.130102494593345
34.19674586770602,-1.3508500631161278,30.1557291755992
34.44674586770602,-1.3377576843675871,30.178644740109153
34.69674586770602,-1.3195846090810308,30.19883930251782
34.94674586770602,-1.2890918956137138,30.218789513617573
35.19674586770602,-1.237454187943595,30.225795462811057
35.44674586770602,-1.1661342330054143,30.247851902089998
35.69674586770602,-1.1273321825262619,30.27447482655641
35.94674586770602,-1.1101532184571188,30.29880117703657
36.19674586770602,-1.097596750670765,30.3191289906738
36.44674586770602,-1.0824169338824208,30.340538169989554
36.69674586770602,-1.0733159378820418,30.373989401544147
36.94674586770602,-1.0691389039003703,30.400979073822544
37.19674586770602,-1.0605237053107817,30.433500103136954
37.44674586770602,-1.0408792852674453,30.467725083909247
37.69674586770602,-1.0172882021245966,30.500322864465296
37.94674586770602,-1.0128743901761115,30.53451364623985
38.19674586770602,-1.0137744901848385,30.556251940030023
38.44674586770602,-1.0190353143373354,30.577105952329415
38.69674586770602,-1.0326305976516987,30.599817997157327
38.94674586770602,-1.0597665866529173,30.623948144120067
39.19674586770602,-1.0921698671784112,30.645323197344617
39.44674586770602,-1.1034163393524252,30.65796036722036
39.69674586770602,-1.0892745401330801,30.683293185354767
39.94674586770602,-1.0691016377185372,30.71073363555806
40.19674586770602,-1.056386086489936,30.73574190624493
40.44674586770602,-1.0428962447012904,30.759427427440723
40.69674586770602,-1.0214336963231436,30.78276234129067
40.94674586770602,-0.9954616438868825,30.804963313894607
41.19674586770602,-0.9859283850761705,30.829806901411345
41.44674586770602,-0.9789724695258191,30.847852414981347
41.69674586770602,-0.9772507919926824,30.865895597270136
41.94674586770602,-0.977492962975277,30.882636307170248
42.19674586770602,-0.9760137084927067,30.898045231413136
42.44674586770602,-0.9702942154779284,30.91607035322401
42.69674586770602,-0.9460421045322763,30.935661692205134
42.94674586770602,-0.9153411489335895,30.956801174161775
43.19674586770602,-0.9054227080838361,30.971665789172302
43.44674586770602,-0.9155765244222188,30.98298133445654
43.69674586770602,-0.9368688530232137,30.99463847678997
43.94674586770602,-0.961542235830247,31.006575753939252
44.19674586770602,-0.9603614846620652,31.00788504002403
44.44674586770602,-0.9551374629105267,31.022630947720614
44.69674586770602,-0.9431156470977476,31.03634799382488
44.94674586770602,-0.9241619951635605,31.047852548590562
45.19674586770602,-0.9011427410321631,31.060489842757615
45.44674586770602,-0.8804619189756108,31.074005544189806
45.69674586770602,-0.8551112760239652,31.092092371024037
45.94674586770602,-0.8360574154212882,31.112002913469183
46.19674586770602,-0.8269491129234199,31.13223736791285
46.44674586770602,-0.8230953325462782,31.153369300074488
46.69674586770602,-0.8193233789510179,31.175914930562993
46.94674586770602,-0.8203819618251396,31.197368530828474
47.19674586770602,-0.821826936656899,31.212723476342692
47.44674586770602,-0.8201929473688305,31.228429248229833
47.69674586770602,-0.8168375680998325,31.242891311956633
47.94674586770602,-0.8135085084551374,31.254457718302938
48.19674586770602,-0.812760017721012,31.26275074858425
48.44674586770602,-0.8361470204591227,31.281624608223776
48.69674586770602,-0.8437192652925793,31.280978089565018
48.94674586770602,-0.8165036695645994,31.292900274669787
49.19674586770602,-0.7686036112406631,31.31419730033367
49.44674586770602,-0.7291115238539493,31.32992527822778
49.69674586770602,-0.7279148971917115,31.343931909850156
49.94674586770602,-0.7242864477202092,31.35542528931349
50.19674586770602,-0.7218350585728732,31.367446620673498
50.44674586770602,-0.7205491010020707,31.37932387496024
50.69674586770602,-0.7198341882392705,31.3906393646242
50.94674586770602,-0.7192367314045771,31.402756862461104
51.19674586770602,-0.7175491058023129,31.41501286212164
51.44674586770602,-0.7175609797145416,31.427960347660136
51.69674586770602,-0.7180987888724667,31.440847769405803
51.94674586770602,-0.7186497654299614,31.453657829624472
52.19674586770602,-0.7194535294870916,31.466818710117543
52.44674586770602,-0.7207565461044465,31.47777125266425
52.69674586770602,-0.7228788673220302,31.486307465681772
52.94674586770602,-0.7276258863943498,31.493112584949145
53.19674586770602,-0.7389673826380563,31.49886400872028
53.44674586770602,-0.7606476128696786,31.5051301994321
53.69674586770602,-0.794788246737592,31.516442207604204
53.94674586770602,-0.7990262368262903,31.513790935754724
54.19674586770602,-0.7918996838916919,31.525504946975982
54.44674586770602,-0.7742339193651517,31.539346195908216
54.69674586770602,-0.7544532283803429,31.548735118973617
54.94674586770602,-0.7556535059086721,31.563669809849287
55.19674586770602,-0.7569203657496859,31.57407070547968
55.44674586770602,-0.7575153426022193,31.586338791227814
55.69674586770602,-0.7572073459065953,31.59756443078882
55.94674586770602,-0.76215207966868,31.606885804637074
56.19674586770602,-0.7838375948946312,31.615723426455457
56.44674586770602,-0.8175232134924783,31.627421688223418
56.69674586770602,-0.8150246828856731,31.640894579010308
56.94674586770602,-0.7872408914244557,31.656169284214148
57.19674586770602,-0.7587053385928793,31.672237012374623
57.44674586770602,-0.7561953361606379,31.687144714339535
57.69674586770602,-0.7577214858291218,31.69596011982241
57.94674586770602,-0.7637779941334928,31.70463078588999
58.19674586770602,-0.7682618391967607,31.71407202096791
58.44674586770602,-0.7706816410499019,31.723616416402894
58.69674586770602,-0.7720240889400436,31.731988633974993
58.94674586770602,-0.7726860923380824,31.737442800446495
59.19674586770602,-0.7723034162231497,31.745032063229733
59.44674586770602,-0.7711963787336835,31.754417474635076
59.69674586770602,-0.7716848825814953,31.763854529280717
59.94674586770602,-0.774698713347285,31.772313852000988
60.19674586770602,-0.779168051316001,31.779891679782384
60.44674586770602,-0.7841208102578537,31.786172602120367
60.69674586770602,-0.7878959494510802,31.791825249212767
60.94674586770602,-0.7919883046915216,31.798624522625733
61.19674586770602,-0.7978872343511141,31.807410711889396
61.44674586770602,-0.8067117328706321,31.81833152989704
61.69674586770602,-0.8160181674784848,31.831641936247383
61.94674586770602,-0.8229769371882979,31.841449657535474
62.19674586770602,-0.828412617384064,31.849649353927266
62.44674586770602,-0.8338591949956004,31.85741888686461
62.69674586770602,-0.8409284825806982,31.86558397635798
62.94674586770602,-0.848786248183884,31.873902096439508
63.19674586770602,-0.857119728626597,31.88260426488501
63.44674586770602,-0.8653496599474838,31.891050959990057
63.69674586770602,-0.8739528200729473,31.899697197599668
63.94674586770602,-0.8829094498361028,31.90852636856976
64.19674586770603,-0.8880863581463233,31.913420617598167
64.44674586770603,-0.8945086596573663,31.919280408385912
64.69674586770603,-0.9011350973128983,31.926299416243456
64.94674586770603,-0.9084717752539532,31.933855364176985
65.19674586770603,-0.9171145090319479,31.941507812130638
65.44674586770603,-0.9273445290387634,31.949585390323172
65.69674586770603,-0.9397890020135696,31.957268842027123
65.94674586770603,-0.9477085721708571,31.965180774369717
66.19674586770603,-0.9533941308637104,31.9733396131663
66.44674586770603,-0.9584345416207538,31.981483588116294
66.69674586770603,-0.9632320508435129,31.98918433124698
66.94674586770603,-0.9700983636852495,31.99876644527291
67.19674586770603,-0.979007095133979,32.006443902498624
67.44674586770603,-0.9940955028908778,32.01171304167402
67.69674586770603,-1.0255634667673472,32.016493265714615
67.94674586770603,-1.0829867803443316,32.023988365295125
68.19674586770603,-1.1233643478261761,32.034619080275945
68.44674586770603,-1.1323683739238484,32.040808165362854
68.69674586770603,-1.129893644245148,32.046747709633806
68.94674586770603,-1.1256210568948943,32.05311863030374
69.19674586770603,-1.1245650629357105,32.05897017226891
69.44674586770603,-1.1255130936070175,32.062356760405315
69.69674586770603,-1.1345181488152685,32.06401794834595
69.94674586770603,-1.1513063072118488,32.065263855976404
70.19674586770603,-1.173297648517499,32.068403994787154
70.44674586770603,-1.1959074531451883,32.07498867179269
70.69674586770603,-1.2083009078758575,32.07852735120569
70.94674586770603,-1.2184229094402785,32.08499271510962
71.19674586770603,-1.2282889948210358,32.09259097874431
71.44674586770603,-1.2365232960264534,32.099716863640616
71.69674586770603,-1.2417686806948431,32.10515830014722
71.94674586770603,-1.2483166309400056,32.109821993199546
72.19674586770603,-1.2551849759563043,32.11483506084617
72.44674586770603,-1.2613524202834263,32.11999494771763
72.69674586770603,-1.2673312860636223,32.12503659682382
72.94674586770603,-1.273715565422535,32.12962962891392
73.19674586770603,-1.279882461638373,32.13320103232978
73.44674586770603,-1.2865639213013162,32.13727569279573
73.69674586770603,-1.2953147476633118,32.14264091953907
73.94674586770603,-1.304886136787929,32.14880147848649
74.19674586770603,-1.3138098029271357,32.15521567001434
74.44674586770603,-1.3213644082881628,32.16194372862104
74.69674586770603,-1.3269540546343175,32.167355340048026
74.94674586770603,-1.3323278813779706,32.172505712380534
75.19674586770603,-1.3379539248653243,32.17721206399622
75.44674586770603,-1.344506707311524,32.18137851637572
75.69674586770603,-1.3535245607466824,32.18535434695254
75.94674586770603,-1.3641374402569095,32.189445100849234
76.19674586770603,-1.3741033528939595,32.19412618249697
76.44674586770603,-1.382046628572488,32.19880410496806
76.69674586770603,-1.3878611811412336,32.20314811686933
76.94674586770603,-1.3931091792916732,32.20731072881401
77.19674586770603,-1.3974554744187542,32.21113495194072
77.44674586770603,-1.4029945660639493,32.216443756069914
77.69674586770603,-1.4074468676609213,32.220856809644054
77.94674586770603,-1.4106566352218197,32.22394184952505
78.19674586770603,-1.4146018153290738,32.22723668730167
78.44674586770603,-1.4170601091114277,32.22937329928593
78.69674586770603,-1.4208974302702668,32.232028721110545
78.94674586770603,-1.425859187603086,32.23445468107968
79.19674586770603,-1.431533717985389,32.236629623137084
79.44674586770603,-1.4373504910463093,32.239222508551684
79.69674586770603,-1.4407362234919954,32.241057860379556
79.94674586770603,-1.4432086909937814,32.24308013324228
80.19674586770603,-1.4451745607096382,32.245359571766286
80.44674586770603,-1.4468681393473597,32.24784644860607
80.69674586770603,-1.448340273938617,32.250376627044965
80.94674586770603,-1.4478377369073498,32.253444325644246
81.19674586770603,-1.4455423895066035,32.257209791579996
81.44674586770603,-1.444118330246103,32.26005236482783
81.69674586770603,-1.4454607242175455,32.26241100564495
81.94674586770603,-1.4505787931116982,32.266408441146154
82.19674586770603,-1.451039919830769,32.26756297355069
82.44674586770603,-1.4484032104289077,32.27208926939411
82.69674586770603,-1.4422888731047,32.27576897244496
82.94674586770603,-1.4354188539703152,32.27885124793365
83.19674586770603,-1.43267023729133,32.284368108149614
83.44674586770603,-1.4359024444357378,32.28607316416292
83.69674586770603,-1.4415706165072804,32.28754291832542
83.94674586770603,-1.444371474810448,32.29049369149069
84.19674586770603,-1.442158873996298,32.29559506804759
84.44674586770603,-1.434669173058673,32.30223850705838
84.69674586770603,-1.4229481948498965,32.30373859614379
84.94674586770603,-1.4210147665645039,32.310383213930244
85.19674586770603,-1.4261434680705338,32.31485286404328
85.44674586770603,-1.4353266754818732,32.31687498626996
85.69674586770603,-1.4445073717313626,32.31847168725172
85.94674586770603,-1.4451263187621042,32.32159547953448
86.19674586770603,-1.4466531514449814,32.32342565920276
86.44674586770603,-1.4498793289542946,32.32617760746231
86.69674586770603,-1.4540896360480218,32.329163621927
86.94674586770603,-1.4579923931111909,32.331303402624776
87.19674586770603,-1.4596606151219917,32.334326516585854
87.44674586770603,-1.4606104793728947,32.33733650350813
87.69674586770603,-1.4615642362987535,32.34032600413335
87.94674586770603,-1.46765326114621,32.34232150742429
88.19674586770603,-1.483174776573764,32.34304416997852
88.44674586770603,-1.5014640535795658,32.34766535903016
88.69674586770603,-1.5059298506901264,32.3493707550137
88.94674586770603,-1.5067055312269033,32.351229244612135
89.19674586770603,-1.5060325158196068,32.35396551133347
89.44674586770603,-1.5044792519240089,32.3572803031525
89.69674586770603,-1.5024819979877295,32.3589483870311
89.94674586770603,-1.5020392170351133,32.36146264799241
90.19674586770603,-1.5023978508188307,32.36443908989833
90.44674586770603,-1.5026029102230896,32.36690182439514
90.69674586770603,-1.5018250570866145,32.36838560810022
90.94674586770603,-1.4996016033858628,32.37006802613079
91.19674586770603,-1.4956386226284017,32.37357730197002
91.44674586770603,-1.4904353412853693,32.375912436870415
91.69674586770603,-1.4853025867050438,32.37822970839342
91.94674586770603,-1.481192447302943,32.38093810274022
92.19674586770603,-1.4779998376956274,32.38124235222892
92.44674586770603,-1.4752318188131894,32.382662908338816
92.69674586770603,-1.4717289356554974,32.386103419314495
92.94674586770603,-1.4686002431200271,32.3893313789412
93.19674586770603,-1.4657842786855158,32.39119074189672
93.44674586770603,-1.4587775018468234,32.39479063172809
93.69674586770603,-1.454731272880007,32.39808315246991
93.94674586770603,-1.4518579755126004,32.39999205861286
94.19674586770603,-1.4501765031966434,32.402305547127234
94.44674586770603,-1.4497690225326678,32.40611696407339
