Depth,Temperature,Salinity
189.14878785249095,-1.5432306610676916,33.12247052488066
189.39878785249095,-1.5427678785092613,33.123104418135576
189.64878785249095,-1.5427193161995651,33.12488783866226
189.89878785249095,-1.5428202045369614,33.12789691337994
190.14878785249095,-1.542674659716295,33.13100956044091
190.39878785249095,-1.5422244712356183,33.13320961649519
190.64878785249095,-1.541851486326223,33.13556470116516
190.89878785249095,-1.5412707908416448,33.13930731132431
191.14878785249095,-1.5409581498575666,33.142172121108196
191.39878785249095,-1.540409091899305,33.145560477251784
191.64878785249095,-1.5393916510904233,33.151388046984
191.89878785249095,-1.5387917354885818,33.157503013322284
192.14878785249095,-1.5383805701521083,33.16215620981132
192.39878785249095,-1.5373352876623883,33.167251724483236
192.64878785249095,-1.5366001815713004,33.171007771415226
192.89878785249095,-1.53604668932753,33.174061166797166
193.14878785249095,-1.5347070849603988,33.17919074059824
193.39878785249095,-1.5333803969195343,33.18467832222674
193.64878785249095,-1.5322963259786355,33.18881205480222
193.89878785249095,-1.5316170739936288,33.19192571844723
194.14878785249095,-1.5307724764659463,33.19442724863924
194.39878785249095,-1.5291607140189694,33.19910733268247
194.64878785249095,-1.5269542338807347,33.208620818781924
194.89878785249095,-1.5248907495903508,33.21823554696629
195.14878785249095,-1.523975252425587,33.22524633459708
195.39878785249095,-1.520748330503888,33.23199375184424
195.64878785249095,-1.5168760019234677,33.23807008467981
195.89878785249095,-1.515460198846165,33.243161799268904
196.14878785249095,-1.5135193164595566,33.25035863505889
196.39878785249095,-1.5123972281817752,33.25470112551631
196.64878785249095,-1.5117615684145909,33.256672062701035
196.89878785249095,-1.5111394692957112,33.25792845234509
197.14878785249095,-1.510243503219711,33.259182888490514
197.39878785249095,-1.5090581238323295,33.26088570393062
197.64878785249095,-1.5081598802948433,33.26319303507341
197.89878785249095,-1.5065840182160757,33.266068419342986
198.14878785249095,-1.5042106363423868,33.27147801686476
198.39878785249095,-1.5020358633015651,33.27783739738544
198.64878785249095,-1.5002512905762795,33.28319494211233
198.89878785249095,-1.498157051654625,33.28866063105617
199.14878785249095,-1.4967057208891095,33.29286384044455
199.39878785249095,-1.4956547110378953,33.295055466384234
199.64878785249095,-1.4948333292592924,33.29724201498971
199.89878785249095,-1.4920374414444801,33.300704701950565
200.14878785249095,-1.486706904073518,33.30530421868332
200.39878785249095,-1.483618131647619,33.31107665704176
200.64878785249095,-1.4821023134038136,33.31533143678405
200.89878785249095,-1.4809360192252154,33.319334939218116
201.14878785249095,-1.4798336362258173,33.323132756344755
201.39878785249095,-1.478374241005384,33.32672460328663
201.64878785249095,-1.475865719066337,33.33231423360529
201.89878785249095,-1.473148666126523,33.339005861964175
202.14878785249095,-1.471446131165808,33.34409795970758
202.39878785249095,-1.4694564792315907,33.34821620160589
202.64878785249095,-1.467281208492872,33.35200467174759
202.89878785249095,-1.4666319488758135,33.35479432457797
203.14878785249095,-1.4663115778313585,33.357655037447124
203.39878785249095,-1.4648868055422406,33.36104905487253
203.64878785249095,-1.46220093218139,33.36570938966168
203.89878785249095,-1.4597633567977875,33.37063247460513
204.14878785249095,-1.4579919572547984,33.375079624144526
204.39878785249095,-1.4556450353360717,33.37994063481365
204.64878785249095,-1.4541308479670918,33.383632722767885
204.89878785249095,-1.4514152218230645,33.38698274124782
205.14878785249095,-1.4469861357654819,33.39316520746456
205.39878785249095,-1.4428647708603857,33.40099830759823
205.64878785249095,-1.4401075249248618,33.40657569172675
205.89878785249095,-1.4371633832876065,33.4115194601838
206.14878785249095,-1.4351125127850997,33.4143477034168
206.39878785249095,-1.4321298294116473,33.418982872012165
206.64878785249095,-1.4272985914085174,33.42592175167575
206.89878785249095,-1.422320028017706,33.43273420037574
207.14878785249095,-1.418781865105838,33.43947469516999
207.39878785249095,-1.4162367521760035,33.44514639986762
207.64878785249095,-1.4140620385702065,33.44902514253088
207.89878785249095,-1.4116749195516562,33.45230565095207
208.14878785249095,-1.4086311085673595,33.45639904082559
208.39878785249095,-1.4054794322580264,33.46111260924034
208.64878785249095,-1.4032961299175297,33.46528260238317
208.89878785249095,-1.4012190406696776,33.469139335746476
209.14878785249095,-1.4001597967710664,33.47283179151397
209.39878785249095,-1.3963009120304775,33.477034524252076
209.64878785249095,-1.390106247995176,33.482542761141794
209.89878785249095,-1.3866775459266696,33.48862723376621
210.14878785249095,-1.3843312032688884,33.49325705708199
210.39878785249095,-1.3823597842421071,33.49763998197392
210.64878785249095,-1.3795166737227496,33.50263623344861
210.89878785249095,-1.3753085547257062,33.508355105145895
211.14878785249095,-1.371346476920857,33.51389527469782
211.39878785249095,-1.3690888830123156,33.51820562904634
211.64878785249095,-1.3664707660009687,33.52228557295979
211.89878785249095,-1.3641224189467336,33.526564293916245
212.14878785249095,-1.359718432834499,33.532066486073
212.39878785249095,-1.3546232348205012,33.538534844745016
212.64878785249095,-1.3518373350027277,33.54468224771424
212.89878785249095,-1.3488414446177608,33.550012800538745
213.14878785249095,-1.346851234953725,33.55350084231172
213.39878785249095,-1.3426259083331096,33.55794935130952
213.64878785249095,-1.337705590362848,33.56424948705893
213.89878785249095,-1.3347727968661391,33.5707760361367
214.14878785249095,-1.3327236932406061,33.575796453410675
214.39878785249095,-1.3311932457767481,33.578658232176444
214.64878785249095,-1.328786962388501,33.58222779731351
214.89878785249095,-1.324229858842071,33.58764918889839
215.14878785249095,-1.319861215408107,33.594325818743634
215.39878785249095,-1.317384218376691,33.60070553700861
215.64878785249095,-1.3151422339185257,33.60517045411485
215.89878785249095,-1.3134956354598455,33.60856590483632
216.14878785249095,-1.3094261447539333,33.61505113388816
216.39878785249095,-1.3052529039126706,33.62288257774776
216.64878785249095,-1.303143345275711,33.62906859633055
216.89878785249095,-1.3012158005057786,33.63403622555223
217.14878785249095,-1.2979123475537029,33.63954764197511
217.39878785249095,-1.2954973709779796,33.645305261348064
217.64878785249095,-1.2915576380055622,33.65141002626673
217.89878785249095,-1.2874034418952127,33.6580214953525
218.14878785249095,-1.2850170065943478,33.66452791840933
218.39878785249095,-1.282731017229639,33.67043365097268
218.64878785249095,-1.2795829651407318,33.67632711937627
218.89878785249095,-1.2775242127809858,33.68085929658772
219.14878785249095,-1.2740677259430226,33.686763477700445
219.39878785249095,-1.269258242936989,33.695088288240925
219.64878785249095,-1.2658836013974284,33.70275239177673
219.89878785249095,-1.2635988335406232,33.70779632575744
220.14878785249095,-1.2609020588276814,33.71317850452224
220.39878785249095,-1.2591790689094244,33.71727852014193
220.64878785249095,-1.256488676712259,33.721312415816115
220.89878785249095,-1.2520806881923991,33.72782956483088
221.14878785249095,-1.2485336177771043,33.735209173063744
221.39878785249095,-1.2465494595582698,33.73952709819084
221.64878785249095,-1.2449227881601477,33.74366459999249
221.89878785249095,-1.2432082221567438,33.74667112396235
222.14878785249095,-1.2415387714892583,33.74894539010022
222.39878785249095,-1.2393249908546735,33.75253196265708
222.64878785249095,-1.235941738195688,33.75791230652815
222.89878785249095,-1.2326404554883648,33.76410160349601
223.14878785249095,-1.2300624098803805,33.769697161099394
223.39878785249095,-1.2255557251824383,33.77740929046547
223.64878785249095,-1.2217408208880802,33.785465808848784
223.89878785249095,-1.2188236321750516,33.79289231911775
224.14878785249095,-1.210936800504532,33.80406991195371
224.39878785249095,-1.2038378145060693,33.81570748444587
224.64878785249095,-1.1996431263197016,33.824641263129514
224.89878785249095,-1.1969708604837495,33.83081749327578
225.14878785249095,-1.1943815277357137,33.83505446014372
225.39878785249095,-1.1919132627697757,33.83843028082482
225.64878785249095,-1.1895188264398193,33.84313090002246
225.89878785249095,-1.1847332953669216,33.84906165804948
226.14878785249095,-1.1809206295681471,33.854931576362944
226.39878785249095,-1.1783769915727305,33.859742334077644
226.64878785249095,-1.1750203827619223,33.86407219576001
226.89878785249095,-1.1713802424781892,33.869479255032296
227.14878785249095,-1.1670908127255293,33.87638651328242
227.39878785249095,-1.1581719253595804,33.88496332895744
227.64878785249095,-1.1503436308930208,33.894067654812254
227.89878785249095,-1.1467429197952346,33.90061616904107
228.14878785249095,-1.1437721684547812,33.90424331397533
228.39878785249095,-1.1403234516699736,33.908216601248235
228.64878785249095,-1.1389366006964048,33.911012813635374
228.89878785249095,-1.1348046936328833,33.91358253239571
229.14878785249095,-1.1284689221066775,33.91743680551732
229.39878785249095,-1.1232030289453296,33.922814768595146
229.64878785249095,-1.1190905797033623,33.92865796692638
229.89878785249095,-1.1146481245349358,33.93344147228357
230.14878785249095,-1.110876786994122,33.93654228413923
230.39878785249095,-1.1075666862185871,33.940518630351434
230.64878785249095,-1.098665092679073,33.946217080240274
230.89878785249095,-1.0878221038784475,33.9527900477063
231.14878785249095,-1.0834831123020037,33.95918793769017
231.39878785249095,-1.0788737561672614,33.96409401578208
231.64878785249095,-1.0752542918545969,33.96764330703377
231.89878785249095,-1.0691559426241455,33.9713819883829
232.14878785249095,-1.0592894296419537,33.976195084680974
232.39878785249095,-1.0497549466932967,33.98231284601716
232.64878785249095,-1.043821496620417,33.98912424221999
232.89878785249095,-1.0394508668746936,33.994049365778615
233.14878785249095,-1.0375347836092352,33.996233243345586
233.39878785249095,-1.0318217018984983,33.997419481899605
233.64878785249095,-1.0238679073919021,34.00152148641986
233.89878785249095,-1.020217723819702,34.007270550430846
234.14878785249095,-1.0189759461384018,34.00911708006123
234.39878785249095,-1.0146985490127693,34.011549597867
234.64878785249095,-1.0035906263713903,34.01685500942569
234.89878785249095,-0.9961999957209375,34.02275069668301
235.14878785249095,-0.9947103797695871,34.026255296298224
235.39878785249095,-0.9932359812421167,34.02771127868811
235.64878785249095,-0.9900759924504247,34.02951657127723
235.89878785249095,-0.9823122800629372,34.03196669315646
236.14878785249095,-0.9763159260100337,34.037146035160674
236.39878785249095,-0.9743251410713821,34.04065921972428
236.64878785249095,-0.9735265698357457,34.04126944175763
236.89878785249095,-0.9729624019074208,34.041854914981485
237.14878785249095,-0.9723812954242761,34.04316109388788
237.39878785249095,-0.9666365127450122,34.044797796343815
237.64878785249095,-0.96165993269453,34.04935057003569
237.89878785249095,-0.9581421612947042,34.053897246757984
238.14878785249095,-0.9554541743435708,34.056443215107734
238.39878785249095,-0.9521859685738903,34.057844362124975
238.64878785249095,-0.9466254865553271,34.05937439154329
238.89878785249095,-0.94297358983804,34.06296727453541
239.14878785249095,-0.9396587284931073,34.06698885913235
239.39878785249095,-0.9357239619274064,34.07012363565733
239.64878785249095,-0.9316683745228915,34.07176613209576
239.89878785249095,-0.9276140421151456,34.07387020045501
240.14878785249095,-0.9230305604110803,34.07868253884803
240.39878785249095,-0.9178445090493387,34.08291796546253
240.64878785249095,-0.9120891793161208,34.087053265913035
240.89878785249095,-0.9077466265687922,34.090287906053895
241.14878785249095,-0.9055470841963076,34.091979330824714
241.39878785249095,-0.9041981275261429,34.09290493531944
241.64878785249095,-0.9019193323289313,34.09387143374575
241.89878785249095,-0.8967002070467144,34.09529347996163
242.14878785249095,-0.887618355979355,34.09926692253906
242.39878785249095,-0.8793012955615911,34.105771333891404
242.64878785249095,-0.8739425876238281,34.11111090671476
242.89878785249095,-0.8705754956802751,34.11335596860455
243.14878785249095,-0.8654981806566547,34.1153596662054
243.39878785249095,-0.8540318050832784,34.12012953449213
243.64878785249095,-0.847157152956324,34.12727988348011
243.89878785249095,-0.8442253935081999,34.13129235203627
244.14878785249095,-0.8412646361712514,34.132018690549394
244.39878785249095,-0.8353358871826162,34.133492964175495
244.64878785249095,-0.8260156617380259,34.13818949737339
244.89878785249095,-0.8176546080582356,34.14539736997761
245.14878785249095,-0.8108033188815001,34.15050131813597
245.39878785249095,-0.8063148379822465,34.15260045618686
245.64878785249095,-0.8024178619585536,34.15368482054268
245.89878785249095,-0.7951787616060535,34.15697314266147
246.14878785249095,-0.7858082404304971,34.16290643287806
246.39878785249095,-0.782260078074746,34.16668011645739
246.64878785249095,-0.7802563789456906,34.16810387822162
246.89878785249095,-0.7786099601178956,34.16881664555459
247.14878785249095,-0.7772840675703118,34.16937644354256
247.39878785249095,-0.7742311012704595,34.1705802633996
247.64878785249095,-0.7657058577278222,34.174200654391996
247.89878785249095,-0.75134575966081,34.17999665375353
248.14878785249095,-0.7464526516962555,34.18512993068145
248.39878785249095,-0.7461627402718615,34.187560094284564
248.64878785249095,-0.7449704079630108,34.18793784015015
248.89878785249095,-0.7442626941487598,34.188069255398645
249.14878785249095,-0.7428388486065669,34.188297230871704
249.39878785249095,-0.7376587767504825,34.18903610838814
249.64878785249095,-0.7291591766425759,34.19584844026743
249.89878785249095,-0.7253261747485777,34.201480987668184
250.14878785249095,-0.7251317893924157,34.20290240354912
250.39878785249095,-0.7237150660419218,34.2031887327853
250.64878785249095,-0.7211479419881917,34.20405789869181
250.89878785249095,-0.71665614505617,34.206436604709104
251.14878785249095,-0.7088382247444179,34.210126269870294
251.39878785249095,-0.7035372400175003,34.2152449775556
251.64878785249095,-0.7014771708339741,34.21802606160731
251.89878785249095,-0.7009575098737795,34.219164620271684
252.14878785249095,-0.6977399380972436,34.220868109202826
252.39878785249095,-0.6867238243165904,34.22231636411407
252.64878785249095,-0.6757135078812964,34.228085193060004
252.89878785249095,-0.6722573155979378,34.23142181661871
253.14878785249095,-0.6701440496923526,34.23241227772486
253.39878785249095,-0.6676164866391212,34.233161493010776
253.64878785249095,-0.6631591659289726,34.23448097752933
253.89878785249095,-0.6538517553593189,34.23794121001518
254.14878785249095,-0.6493308633172094,34.24341622203238
254.39878785249095,-0.6473969905694545,34.24572061368267
254.64878785249095,-0.6452858035494029,34.24608450816556
254.89878785249095,-0.643542908012562,34.24661528098915
255.14878785249095,-0.6425700702424906,34.24770813112721
255.39878785249095,-0.6383584789023883,34.2499243245915
255.64878785249095,-0.6273107477673158,34.25372173606562
255.89878785249095,-0.6221088299578441,34.25798213636879
256.14878785249095,-0.6204488207947841,34.260481886901424
256.39878785249095,-0.6189456166049727,34.26111390330763
256.64878785249095,-0.6184714059678461,34.26164608866776
256.89878785249095,-0.6176985681615734,34.26288160045888
257.14878785249095,-0.6123967693947271,34.26426124447262
257.39878785249095,-0.5980587538553099,34.26823120891109
257.64878785249095,-0.5904622023104776,34.27310861619074
257.89878785249095,-0.5905891924812176,34.275928599858865
258.14878785249095,-0.5888956142333103,34.27642558690276
258.39878785249095,-0.5878592142607479,34.27671338805958
258.64878785249095,-0.5872112381412458,34.277981748718226
258.89878785249095,-0.5787185023158142,34.27903050474365
259.14878785249095,-0.5672144311854492,34.28277745500352
259.39878785249095,-0.5609072428275061,34.28840068453611
259.64878785249095,-0.5594746163866606,34.29158685269985
259.89878785249095,-0.5580490287707419,34.291744257264895
260.14878785249095,-0.5565072397350695,34.291905185161994
260.39878785249095,-0.555323548146842,34.29194751801446
260.64878785249095,-0.5550846236216223,34.29287244779762
260.89878785249095,-0.5518063780120404,34.29494440634988
261.14878785249095,-0.5447680518606866,34.2978922947817
261.39878785249095,-0.5393224538157244,34.30119906472666
261.64878785249095,-0.5374890596115596,34.30352088015746
261.89878785249095,-0.5352834961578281,34.30487000555257
262.14878785249095,-0.5336243371232764,34.30565442478517
262.39878785249095,-0.531162568363735,34.30673890260253
262.64878785249095,-0.5210696950750197,34.310502786465115
262.89878785249095,-0.5064619957115132,34.316992214178754
263.14878785249095,-0.504474175787955,34.320766321397166
263.39878785249095,-0.5010449351319997,34.32217924862819
263.64878785249095,-0.49792787813330613,34.32294596179884
263.89878785249095,-0.4963210874793142,34.322829613928945
264.14878785249095,-0.4952856260095329,34.3231605200006
264.39878785249095,-0.49278638622432197,34.32402546804726
264.64878785249095,-0.487690418129072,34.323844796183934
264.89878785249095,-0.48690915097858817,34.326651473172085
265.14878785249095,-0.4703837349441461,34.32675388304791
265.39878785249095,-0.45640634783788664,34.33252007741036
265.64878785249095,-0.45183940144837503,34.33961033515316
265.89878785249095,-0.45014994146942167,34.34221719904895
266.14878785249095,-0.44877685215679813,34.34265768920972
266.39878785249095,-0.44730044082715525,34.34241026492959
266.64878785249095,-0.44655592119251625,34.34255768947126
266.89878785249095,-0.44529207175735874,34.34243775188749
267.14878785249095,-0.44608521176174654,34.34391566335032
267.39878785249095,-0.4413915659372105,34.34529624206538
267.64878785249095,-0.4264307457733666,34.34716592969938
267.89878785249095,-0.4133249287835034,34.3532381168344
268.14878785249095,-0.41108649598135016,34.357572346924975
268.39878785249095,-0.4104131016640218,34.359128950166955
268.64878785249095,-0.4095680087637441,34.35941284425929
268.89878785249095,-0.40839288630356607,34.359021698433516
269.14878785249095,-0.40684031425515726,34.358699200085184
269.39878785249095,-0.40621944054417936,34.35907996700897
269.64878785249095,-0.40479049716232224,34.35907167609186
269.89878785249095,-0.40662524937900857,34.361867428646015
270.14878785249095,-0.3938626434106704,34.36454796894142
270.39878785249095,-0.38125124375571345,34.36879491597703
270.64878785249095,-0.3815614347751153,34.37383639835953
270.89878785249095,-0.38025314114426934,34.37476407753369
271.14878785249095,-0.3791852885082299,34.374907812259195
271.39878785249095,-0.3782753407369378,34.374758424477314
271.64878785249095,-0.37746573701843517,34.37459050306235
271.89878785249095,-0.37696049401168086,34.374819627084854
272.14878785249095,-0.3764613564140053,34.374960076443436
272.39878785249095,-0.3761910870722104,34.37493301301779
272.64878785249095,-0.3765817873845749,34.375942421758104
272.89878785249095,-0.3722393476586377,34.37584132055566
273.14878785249095,-0.3610466581890829,34.38112065378485
273.39878785249095,-0.3540552293966,34.38772059911851
273.64878785249095,-0.3548080994681564,34.38965610102567
273.89878785249095,-0.35374564130419645,34.390173699258
274.14878785249095,-0.352553213782002,34.390206012385
274.39878785249095,-0.3519387170652377,34.39038284948422
274.64878785249095,-0.35118560268322885,34.39038426284277
274.89878785249095,-0.35182100283092005,34.391436834005525
275.14878785249095,-0.348963083935419,34.39265105481938
275.39878785249095,-0.33848399505417365,34.39421012930063
275.64878785249095,-0.3310525613879276,34.40005224595691
275.89878785249095,-0.32990381059184204,34.40281998060107
276.14878785249095,-0.32955042325080897,34.40382503896082
