Depth,Temperature,Salinity
185.5634886891189,-1.5187442153857829,32.99743451193457
185.8134886891189,-1.5185785251711872,33.00030126634008
186.0634886891189,-1.5181715873077806,33.00245334468235
186.3134886891189,-1.5177696065155395,33.00487507916217
186.5634886891189,-1.5174693037187987,33.00791180082918
186.8134886891189,-1.517287979234171,33.010780525788384
187.0634886891189,-1.517335230333982,33.01261646078333
187.3134886891189,-1.5176464216646934,33.014543096892126
187.5634886891189,-1.517455702522446,33.01667534351997
187.8134886891189,-1.5172663750808855,33.0188023527503
188.0634886891189,-1.5177218717576557,33.0209896213533
188.3134886891189,-1.5182585409458884,33.023263334869085
188.5634886891189,-1.518477477078753,33.02504702865384
188.8134886891189,-1.5183733867090021,33.026183383988815
189.0634886891189,-1.51793507759107,33.02798009291289
189.3134886891189,-1.5173002401702333,33.03082575446639
189.5634886891189,-1.5168360387589896,33.03278142633393
189.8134886891189,-1.5162410072055013,33.03473614605413
190.0634886891189,-1.5154675192173588,33.037259043258366
190.3134886891189,-1.514732200079646,33.03971718656691
190.5634886891189,-1.5141676574156457,33.041369017435876
190.8134886891189,-1.513622953812588,33.0431346492348
191.0634886891189,-1.5131601029129393,33.04492955234915
191.3134886891189,-1.512640662841474,33.04696471927472
191.5634886891189,-1.5119662336644242,33.04949699309002
191.8134886891189,-1.511522448041931,33.05176028204749
192.0634886891189,-1.5112978535812354,33.05400022236819
192.3134886891189,-1.5110576180936028,33.055791313787424
192.5634886891189,-1.5110816637283366,33.05780345408905
192.8134886891189,-1.5113273402085359,33.06004208203144
193.0634886891189,-1.5112975274166762,33.061662900436446
193.3134886891189,-1.5115647003400496,33.06451513241299
193.5634886891189,-1.5120204648189808,33.06695887291747
193.8134886891189,-1.513490104963284,33.07010065515421
194.0634886891189,-1.5151167254282503,33.07384114572723
194.3134886891189,-1.5153021867022354,33.07591739936514
194.5634886891189,-1.5151536165040125,33.076826793736785
194.8134886891189,-1.5146525732657572,33.079044377983884
195.0634886891189,-1.5133615824348237,33.082109793507065
195.3134886891189,-1.511549064727343,33.08502491937552
195.5634886891189,-1.510087531445452,33.08833095516541
195.8134886891189,-1.5093658420763203,33.09247458242555
196.0634886891189,-1.5091934468897243,33.095816883110956
196.3134886891189,-1.5093447495820078,33.100143319655274
196.5634886891189,-1.5095370272960231,33.105267046590214
196.8134886891189,-1.5094975781684268,33.10737719225308
197.0634886891189,-1.509544140512724,33.110414593736095
197.3134886891189,-1.5099532855408475,33.11524754345515
197.5634886891189,-1.5103318717671907,33.11939060372883
197.8134886891189,-1.510238756187263,33.121411081920726
198.0634886891189,-1.5102000659780095,33.12400481545076
198.3134886891189,-1.5102487275609398,33.12758816685948
198.5634886891189,-1.510355740448822,33.130979620086855
198.8134886891189,-1.5102507037591293,33.13455332579601
199.0634886891189,-1.5096914561081196,33.13922083933916
199.3134886891189,-1.5094980696085796,33.14095594455956
199.5634886891189,-1.5089598399529305,33.143792325171475
199.8134886891189,-1.508189862004213,33.14742459149825
200.0634886891189,-1.5072536468768902,33.15043708790298
200.3134886891189,-1.5055665664287325,33.155392820817916
200.5634886891189,-1.5047524686824447,33.15826048198738
200.8134886891189,-1.5037346122968454,33.161687066330906
201.0634886891189,-1.5020878818750438,33.16527129677833
201.3134886891189,-1.5006776701617566,33.1689558059418
201.5634886891189,-1.499664331477086,33.174457144690535
201.8134886891189,-1.4979115669095826,33.179472227575545
202.0634886891189,-1.4962171262763515,33.18382777933499
202.3134886891189,-1.495166868118618,33.18837452736507
202.5634886891189,-1.4940792028661087,33.19232058289912
202.8134886891189,-1.4925830859246134,33.195029088580426
203.0634886891189,-1.4915142404539714,33.197919680318435
203.3134886891189,-1.4898315895997032,33.200032585573474
203.5634886891189,-1.4886910486005887,33.20310847651608
203.8134886891189,-1.4873398084209124,33.20721829045414
204.0634886891189,-1.4845054420214971,33.2106897434232
204.3134886891189,-1.4831558716620536,33.2141581764728
204.5634886891189,-1.4819817453683037,33.21608608045973
204.8134886891189,-1.4797124420752685,33.22031011636082
205.0634886891189,-1.4775177353736257,33.22611472115878
205.3134886891189,-1.476373570959101,33.229154361735866
205.5634886891189,-1.4742259241546387,33.234168064265475
205.8134886891189,-1.4723212049447374,33.239649916325085
206.0634886891189,-1.4706311686307578,33.24620849901979
206.3134886891189,-1.4696170043509171,33.25175534248204
206.5634886891189,-1.4689148234809697,33.254759500417016
206.8134886891189,-1.4664982002898581,33.25841918294422
207.0634886891189,-1.4631636592911854,33.263488505459875
207.3134886891189,-1.4611759281214747,33.26762495497554
207.5634886891189,-1.4596953010085658,33.27094481391008
207.8134886891189,-1.4573582959778413,33.27418925974478
208.0634886891189,-1.4552185700888696,33.276613488934096
208.3134886891189,-1.4530881602003392,33.28047613281512
208.5634886891189,-1.450683846922373,33.28405363143583
208.8134886891189,-1.4474318489609026,33.28874330693253
209.0634886891189,-1.4438680354592683,33.29718631334638
209.3134886891189,-1.4424606671376963,33.303256139093904
209.5634886891189,-1.4393173287505263,33.30650877816816
209.8134886891189,-1.4354720872917635,33.31186995943715
210.0634886891189,-1.4345010291823956,33.31885550263135
210.3134886891189,-1.434265490711347,33.32293250018174
210.5634886891189,-1.4292064057216423,33.327538378723766
210.8134886891189,-1.4271312822429951,33.330016296930054
211.0634886891189,-1.4249463966923337,33.333252347578096
211.3134886891189,-1.4214141649801173,33.33823544366465
211.5634886891189,-1.4185547020630946,33.34358607730298
211.8134886891189,-1.415477577915035,33.34962054537973
212.0634886891189,-1.4146409636657267,33.35479329875071
212.3134886891189,-1.4144652679650587,33.3583619698159
212.5634886891189,-1.4140103406221962,33.36346099572557
212.8134886891189,-1.4143470978685664,33.36989174142291
213.0634886891189,-1.4137591500001385,33.37532156484344
213.3134886891189,-1.4087515088213778,33.380277381226946
213.5634886891189,-1.4065346186934202,33.38335394698909
213.8134886891189,-1.403428521023054,33.38783476864676
214.0634886891189,-1.3992800935172065,33.39258556111363
214.3134886891189,-1.3960303929538787,33.39599662031111
214.5634886891189,-1.389969504753377,33.40213986447558
214.8134886891189,-1.38645884519888,33.40767482858697
215.0634886891189,-1.384235803718875,33.41199985978589
215.3134886891189,-1.3804221753974448,33.416445493851306
215.5634886891189,-1.3758331852819965,33.42165988655934
215.8134886891189,-1.3723610799506072,33.42755137787941
216.0634886891189,-1.369640022091202,33.433389754414165
216.3134886891189,-1.367556194475802,33.43730954913954
216.5634886891189,-1.3652537523171773,33.44048170707878
216.8134886891189,-1.3619629054759645,33.44529235241065
217.0634886891189,-1.359900290488188,33.448452139553176
217.3134886891189,-1.358586697008325,33.45077038688185
217.5634886891189,-1.3567011398810056,33.45368502887098
217.8134886891189,-1.354131783906009,33.456938106924135
218.0634886891189,-1.3515359133607197,33.46032382757528
218.3134886891189,-1.3478975506815303,33.46689691005204
218.5634886891189,-1.3449234946997846,33.472317142509034
218.8134886891189,-1.3429913710332733,33.47696390081934
219.0634886891189,-1.3411968343432135,33.48413099284138
219.3134886891189,-1.340786367014595,33.488286187459174
219.5634886891189,-1.340510887988973,33.49158431071019
219.8134886891189,-1.3399925890210007,33.496986158878514
220.0634886891189,-1.3397201984299139,33.50299616554615
220.3134886891189,-1.3396597030060036,33.50635526291301
220.5634886891189,-1.339273547965143,33.50943714669268
220.8134886891189,-1.338192037550398,33.51558474525653
221.0634886891189,-1.337581809483008,33.52210113966896
221.3134886891189,-1.336641697152294,33.52702878599445
221.5634886891189,-1.3341267033300053,33.531810022516126
221.8134886891189,-1.3315684712093148,33.537509242725385
222.0634886891189,-1.3279682222856455,33.54616757015519
222.3134886891189,-1.3254077677747034,33.551986606213596
222.5634886891189,-1.3235815645000004,33.558225323381265
222.8134886891189,-1.3217964662771615,33.56580722957309
223.0634886891189,-1.3205794673454287,33.569924330211016
223.3134886891189,-1.3193339168795708,33.57262982119277
223.5634886891189,-1.3169214042257797,33.57850756303009
223.8134886891189,-1.3148205726854745,33.583626777881484
224.0634886891189,-1.3129347853902515,33.589207551278136
224.3134886891189,-1.3109391055133917,33.5961908215527
224.5634886891189,-1.3099050553537186,33.59954589488713
224.8134886891189,-1.3081210482521644,33.60323575892848
225.0634886891189,-1.30472129202112,33.60781951819374
225.3134886891189,-1.3007913667811,33.61474171774692
225.5634886891189,-1.2979273115725332,33.62232673595925
225.8134886891189,-1.2962848952530395,33.62607174926729
226.0634886891189,-1.294183979816366,33.63062423732838
226.3134886891189,-1.2904217561751565,33.63793243053017
226.5634886891189,-1.2869110254146643,33.64480514081101
226.8134886891189,-1.283932380861275,33.64999110558371
227.0634886891189,-1.2802003152392256,33.65597162660812
227.3134886891189,-1.2786591090178563,33.6620578122788
227.5634886891189,-1.2765901526689254,33.667145625432234
227.8134886891189,-1.2751272293373512,33.671232734598775
228.0634886891189,-1.2727658516921978,33.676617238770966
228.3134886891189,-1.2667123449479276,33.68452101887724
228.5634886891189,-1.264664550658029,33.6904135467129
228.8134886891189,-1.2652334969172234,33.69418802382808
229.0634886891189,-1.26178730856334,33.69813443138321
229.3134886891189,-1.2542273350972888,33.70436488387845
229.5634886891189,-1.2510369610259975,33.713066818725345
229.8134886891189,-1.2479427942697416,33.721387053894794
230.0634886891189,-1.2438912296669171,33.728878032935924
230.3134886891189,-1.241028923567878,33.735182012890554
230.5634886891189,-1.2396070426411443,33.73924761077765
230.8134886891189,-1.2370524048641747,33.74339957999814
231.0634886891189,-1.2340431758521564,33.748885220042006
231.3134886891189,-1.2309744503647209,33.75469869682028
231.5634886891189,-1.2287406226864956,33.75860773743738
231.8134886891189,-1.2273339423748013,33.76045753726016
232.0634886891189,-1.221847880481761,33.765142621292966
232.3134886891189,-1.2158374096498221,33.776807323144176
232.5634886891189,-1.2134893865108272,33.78601804452642
232.8134886891189,-1.2118504318498464,33.79018222451235
233.0634886891189,-1.2083504510863148,33.79393775154759
233.3134886891189,-1.2048764751041068,33.79919470214717
233.5634886891189,-1.2009856719367278,33.806202720406155
233.8134886891189,-1.1984106069692924,33.81192463192087
234.0634886891189,-1.1945477766094734,33.81805994196804
234.3134886891189,-1.188476153555644,33.82542880682234
234.5634886891189,-1.1834781474214136,33.8325354110456
234.8134886891189,-1.1811532388254595,33.84080530226113
235.0634886891189,-1.1803488894682828,33.84474944684909
235.3134886891189,-1.1754475788975083,33.84818800414137
235.5634886891189,-1.1668191853738985,33.856165488171754
235.8134886891189,-1.1638133352795592,33.86292966087073
236.0634886891189,-1.1605688388521362,33.86909067304904
236.3134886891189,-1.154565069565603,33.876922068795906
236.5634886891189,-1.1488835448154349,33.884537244157094
236.8134886891189,-1.1453599844126443,33.89043050858182
237.0634886891189,-1.142045157478829,33.896627077725725
237.3134886891189,-1.1387947846595121,33.90180706698732
237.5634886891189,-1.1363063805366633,33.90474680613336
237.8134886891189,-1.1341066771101946,33.908969477187135
238.0634886891189,-1.1321837190938595,33.91396463006743
238.3134886891189,-1.1298069602708094,33.916245930337595
238.5634886891189,-1.1248778341554508,33.91817283153489
238.8134886891189,-1.120984598193621,33.92345507996731
239.0634886891189,-1.1179747371043633,33.92871676817118
239.3134886891189,-1.114904578033449,33.932289037259466
239.5634886891189,-1.1120141664241623,33.93639390739667
239.8134886891189,-1.107964352775431,33.93999638716867
240.0634886891189,-1.1013076353214626,33.94382818032798
240.3134886891189,-1.0961913507893446,33.94877949166565
240.5634886891189,-1.0932481155142855,33.952773452423145
240.8134886891189,-1.0867206842508699,33.95350044059185
241.0634886891189,-1.0801244433544963,33.956313298302405
241.3134886891189,-1.0768538405916763,33.96012818477925
241.5634886891189,-1.0722961973687566,33.96718854404141
241.8134886891189,-1.0640591688961796,33.97596350764478
242.0634886891189,-1.0575874394281612,33.97942335240675
242.3134886891189,-1.0539095172679875,33.981710374469664
242.5634886891189,-1.0508212389198106,33.985772160129514
242.8134886891189,-1.041643036695397,33.990608487101866
243.0634886891189,-1.0339906118725875,33.99677360288821
243.3134886891189,-1.0311927643186583,34.00224310457081
243.5634886891189,-1.0242399986624389,34.004069614287125
243.8134886891189,-1.0177518656086728,34.007113651484396
244.0634886891189,-1.0119454196678395,34.010306576065496
244.3134886891189,-1.005479747093491,34.016047788468306
244.5634886891189,-1.0000340035777926,34.02133326659595
244.8134886891189,-0.9956494580679995,34.023550209803844
245.0634886891189,-0.9898039589652229,34.026556631603206
245.3134886891189,-0.9853790266351815,34.03035950459905
245.5634886891189,-0.9793504610085969,34.03307934159606
245.8134886891189,-0.9728200081859271,34.03738479326096
246.0634886891189,-0.9692847452342691,34.04330790350928
246.3134886891189,-0.9674631444073638,34.04626529351431
246.5634886891189,-0.9625607926636366,34.04989045941597
246.8134886891189,-0.9596809323100055,34.05400589014632
247.0634886891189,-0.9566522665470815,34.05666910182945
247.3134886891189,-0.9500409619802013,34.05822420644098
247.5634886891189,-0.9450823572643114,34.060927780378854
247.8134886891189,-0.938811293745882,34.06327794131874
248.0634886891189,-0.9315904680688802,34.068517563644235
248.3134886891189,-0.9260899473946127,34.07416204913919
248.5634886891189,-0.9235723613120845,34.07565063246227
248.8134886891189,-0.9218749341099726,34.0793838469213
249.0634886891189,-0.9148460272345631,34.080624274195785
249.3134886891189,-0.9067305996093931,34.08313064629695
249.5634886891189,-0.8999992110027947,34.08989983998664
249.8134886891189,-0.8919278958704425,34.09613407381868
250.0634886891189,-0.8876009169699743,34.10171947148315
250.3134886891189,-0.8816155744761404,34.10741910804134
250.5634886891189,-0.8783664017352796,34.11093866922116
250.8134886891189,-0.8757922199149659,34.113265064702986
251.0634886891189,-0.8714340753191885,34.115136363383144
251.3134886891189,-0.8675427627763351,34.115532601714094
251.5634886891189,-0.8588095482772504,34.11777494197665
251.8134886891189,-0.851612946442857,34.12125606175714
252.0634886891189,-0.8429871274686545,34.12272806879035
252.3134886891189,-0.834797163586903,34.126262690484545
252.5634886891189,-0.8315481755992858,34.13427449524063
252.8134886891189,-0.8272421480223172,34.13738416000714
253.0634886891189,-0.8226230111362363,34.13989036340859
253.3134886891189,-0.8141157182545249,34.14368585765224
253.5634886891189,-0.8089141031523059,34.14784379760402
253.8134886891189,-0.8094836086903678,34.15036897119874
254.0634886891189,-0.8007565099623751,34.15042404244938
254.3134886891189,-0.7958363840936371,34.154062224881294
254.5634886891189,-0.7921752189399315,34.15721863729928
254.8134886891189,-0.7848235584176335,34.15706150783387
255.0634886891189,-0.7783331986347266,34.158323476544815
255.3134886891189,-0.7757915609362792,34.164177883986234
255.5634886891189,-0.7714061034224334,34.16889895508439
255.8134886891189,-0.7679564656494459,34.169351108296425
256.0634886891189,-0.7627761139082087,34.1710988854379
256.3134886891189,-0.7596607579893151,34.17574333511405
256.5634886891189,-0.7579364391532004,34.178881985394156
256.8134886891189,-0.7472650506764434,34.17853502983089
257.0634886891189,-0.7412725365860288,34.18174005109867
257.3134886891189,-0.7397596392302818,34.18646069176896
257.5634886891189,-0.7360380325599221,34.18884728842611
257.8134886891189,-0.7310273568481077,34.19020340435023
258.0634886891189,-0.7292496084049888,34.19333844074055
258.3134886891189,-0.7212872301825244,34.195086092382134
258.5634886891189,-0.7152312790985831,34.19828829801776
258.8134886891189,-0.7099404849879968,34.20261876429256
259.0634886891189,-0.7030898279348174,34.205252420438775
259.3134886891189,-0.7019314380111323,34.207327372175556
259.5634886891189,-0.7016045311013926,34.21184621394301
259.8134886891189,-0.6977929442858339,34.21249712459845
260.0634886891189,-0.6927505149251153,34.21219819856204
260.3134886891189,-0.6879020323325575,34.21456968102523
260.5634886891189,-0.6817697997461778,34.21652903494055
260.8134886891189,-0.677802130735125,34.21984375485869
261.0634886891189,-0.6738469100748722,34.22283649614011
261.3134886891189,-0.6696275307723665,34.22435061001795
261.5634886891189,-0.6647864383043133,34.22576023673548
261.8134886891189,-0.6602614445379776,34.22838631118993
262.0634886891189,-0.6591404480848843,34.23112512782797
262.3134886891189,-0.657616600147098,34.23223345172415
262.5634886891189,-0.6497910945391141,34.230912028719295
262.8134886891189,-0.6423319890309551,34.2328386018235
263.0634886891189,-0.6401352408110533,34.23819729913227
263.3134886891189,-0.6385077140542139,34.24102630368246
263.5634886891189,-0.6333206572208305,34.241251625945715
263.8134886891189,-0.6278721470552551,34.243180054355335
264.0634886891189,-0.6222581099604538,34.24618522101236
264.3134886891189,-0.6178536750500572,34.24903259406967
264.5634886891189,-0.6152226076206799,34.25138941132022
264.8134886891189,-0.6120558760848743,34.25298225189461
265.0634886891189,-0.6113393664805262,34.2557290468837
265.3134886891189,-0.60430864173487,34.255593688012745
265.5634886891189,-0.594889190093208,34.256640288222364
265.8134886891189,-0.5901640266569808,34.26220719050027
266.0634886891189,-0.5861178444299947,34.26623884848071
266.3134886891189,-0.5835555816394458,34.268252864093256
266.5634886891189,-0.5832859116854563,34.27126226470587
266.8134886891189,-0.5815426053248485,34.2725290097214
267.0634886891189,-0.5765511071329213,34.271414490242925
267.3134886891189,-0.572229434595425,34.27336221050037
267.5634886891189,-0.569511479202194,34.276453670263926
267.8134886891189,-0.565513952542029,34.27790132998976
268.0634886891189,-0.5626420199765837,34.279639183490964
268.3134886891189,-0.5615686838997116,34.28271212053476
268.5634886891189,-0.5586735656131141,34.28493031068083
268.8134886891189,-0.5555670254272906,34.28690098388757
269.0634886891189,-0.5521588047000391,34.289361241105844
269.3134886891189,-0.5479124748926911,34.2934893536181
269.5634886891189,-0.5452975832290471,34.29744624470175
269.8134886891189,-0.5454115975497561,34.298277396981646
270.0634886891189,-0.5414998930090446,34.2982099974504
270.3134886891189,-0.5328117088602577,34.299969869149194
270.5634886891189,-0.5283386346185265,34.303003200411695
270.8134886891189,-0.5257386262820408,34.30541854336292
271.0634886891189,-0.5195056646822183,34.307153037003445
271.3134886891189,-0.5184405832523138,34.30966367107307
271.5634886891189,-0.5150944128511463,34.31164784100686
271.8134886891189,-0.5117003610745501,34.31328924281268
272.0634886891189,-0.5092740086411924,34.31541233753637
272.3134886891189,-0.5070014496762835,34.317077808853156
272.5634886891189,-0.5055341352750135,34.31760632152275
272.8134886891189,-0.5027744332071424,34.32006466983789
273.0634886891189,-0.502916909328605,34.322352825378495
273.3134886891189,-0.5004088033506289,34.32218320235912
273.5634886891189,-0.4958402575394997,34.322701926002885
273.8134886891189,-0.49411004604532033,34.32623995716981
274.0634886891189,-0.4910862534456582,34.32817035553851
274.3134886891189,-0.48490894028830145,34.32705008800955
