Depth,Temperature,Salinity
205.24741380534894,-1.5452951361201812,33.07380325288835
205.49741380534894,-1.5451132081429515,33.07628502410824
205.74741380534894,-1.5450715313129844,33.08303113326238
205.99741380534894,-1.5449558267994103,33.089836407861036
206.24741380534894,-1.5445970512267921,33.09597472165077
206.49741380534894,-1.5440860164751213,33.1019856576168
206.74741380534894,-1.5438219809485638,33.10469744958352
206.99741380534894,-1.5435274242339057,33.10739784008565
207.24741380534894,-1.5429923667759087,33.111372661927554
207.49741380534894,-1.542382632642402,33.11544247609677
207.74741380534894,-1.5417790352743797,33.12000156383603
207.99741380534894,-1.5406680120691216,33.127572460197456
208.24741380534894,-1.5398256549317497,33.13382032200511
208.49741380534894,-1.5390105044502866,33.138605065406146
208.74741380534894,-1.5379202120116697,33.14430329450464
208.99741380534894,-1.5372890204127228,33.15021762567857
209.24741380534894,-1.536057494465858,33.15850744933956
209.49741380534894,-1.5346085738851976,33.16884570133197
209.74741380534894,-1.5336326169944776,33.17717625557738
209.99741380534894,-1.533045978761627,33.18104934306102
210.24741380534894,-1.5324695792215983,33.184033454060284
210.49741380534894,-1.5322676203339043,33.18537581849138
210.74741380534894,-1.531860145603096,33.18669875285646
210.99741380534894,-1.5311111806140176,33.18965047231043
211.24741380534894,-1.5306213705171348,33.19379206519269
211.49741380534894,-1.5298151742523958,33.1991688871122
211.74741380534894,-1.5289959863361873,33.20312335015915
211.99741380534894,-1.5281703706031045,33.20647935049444
212.24741380534894,-1.5272608366478642,33.21041693155236
212.49741380534894,-1.5264991342509817,33.21344800447119
212.74741380534894,-1.525528528201508,33.2171371295162
212.99741380534894,-1.5240859768359356,33.222100391287405
213.24741380534894,-1.5221699477827508,33.227314111330216
213.49741380534894,-1.5198697025304269,33.23228286023134
213.74741380534894,-1.5173792104816992,33.23808214473078
213.99741380534894,-1.515544356105237,33.24310675340761
214.24741380534894,-1.5142462320299614,33.24772624437415
214.49741380534894,-1.5133692696089251,33.25116690350437
214.74741380534894,-1.512951692789384,33.25222930042639
214.99741380534894,-1.5121387591139013,33.25432851238449
215.24741380534894,-1.5111066328115128,33.2578317166716
215.49741380534894,-1.5098142398310281,33.26155522584306
215.74741380534894,-1.5083760814076648,33.264577562181934
215.99741380534894,-1.507246677664169,33.26717694282813
216.24741380534894,-1.5060069725028895,33.27084224720914
216.49741380534894,-1.5044802257173386,33.27581955102922
216.74741380534894,-1.50339334408891,33.279830479786824
216.99741380534894,-1.5025882117469258,33.2830094136628
217.24741380534894,-1.5006908407425668,33.28902624373432
217.49741380534894,-1.4987965992666439,33.29557338618839
217.74741380534894,-1.497700356952381,33.300355384737664
217.99741380534894,-1.4969547306493447,33.30380368346162
218.24741380534894,-1.4960067517170965,33.306978039780475
218.49741380534894,-1.4952251904933844,33.30938870700767
218.74741380534894,-1.4941979752072267,33.3126121984092
218.99741380534894,-1.4932030806835048,33.31579136190342
219.24741380534894,-1.492428968173952,33.31844662684393
219.49741380534894,-1.491195185813839,33.32204008818629
219.74741380534894,-1.4886998507914475,33.32733980683119
219.99741380534894,-1.4862128415706486,33.333297328494446
220.24741380534894,-1.4840205224987397,33.338850854032884
220.49741380534894,-1.481828864939188,33.34425577424289
220.74741380534894,-1.479882660054288,33.35012447130484
220.99741380534894,-1.478037469311405,33.354760520499106
221.24741380534894,-1.476666127141145,33.35868214694534
221.49741380534894,-1.4748162483766099,33.36265636112686
221.74741380534894,-1.4721983314202407,33.36638063768867
221.99741380534894,-1.4710419789224054,33.369181452016946
222.24741380534894,-1.4699907257973608,33.3711777697944
222.49741380534894,-1.4689033982920412,33.37261908356832
222.74741380534894,-1.4679515145733744,33.37433485234478
222.99741380534894,-1.466264874533607,33.377611333265804
223.24741380534894,-1.4632077093945155,33.38270286032091
223.49741380534894,-1.46022443305314,33.38745784163573
223.74741380534894,-1.4577490900273862,33.392758112467284
223.99741380534894,-1.4554784755854986,33.39910461359031
224.24741380534894,-1.4534252449924863,33.40399771130091
224.49741380534894,-1.450950912670598,33.4085064045836
224.74741380534894,-1.4490530630330487,33.41283117796107
224.99741380534894,-1.4479182895016807,33.416052905459274
225.24741380534894,-1.4468296780247765,33.417888761249294
225.49741380534894,-1.4458804042418023,33.41967936496167
225.74741380534894,-1.4445152756964097,33.421798913678586
225.99741380534894,-1.442829045962526,33.4244691793085
226.24741380534894,-1.4415930650910485,33.427424199288936
226.49741380534894,-1.440845251925811,33.430120477133315
226.74741380534894,-1.4388797765638903,33.432918941808076
226.99741380534894,-1.4373231863015334,33.43554048361471
227.24741380534894,-1.435859515450057,33.43810758320856
227.49741380534894,-1.4333901653200687,33.44176608992385
227.74741380534894,-1.4311445789656227,33.44720626545067
227.99741380534894,-1.428873784263523,33.45146918294908
228.24741380534894,-1.426911454226515,33.45519832235064
228.49741380534894,-1.4253412989160574,33.45871341883753
228.74741380534894,-1.4238100370634632,33.461209385909974
228.99741380534894,-1.4225065175893155,33.464039162801335
229.24741380534894,-1.4213222716748877,33.46551484431439
229.49741380534894,-1.4199966896399983,33.46690628661623
229.74741380534894,-1.418114429191915,33.47039426964139
229.99741380534894,-1.4155433381643452,33.47512401948558
230.24741380534894,-1.413379405372463,33.47843861368452
230.49741380534894,-1.4122870104999141,33.4811304379714
230.74741380534894,-1.4102220924920927,33.48564996458755
230.99741380534894,-1.4066016541540256,33.49151536509992
231.24741380534894,-1.405144476165427,33.494767959137704
231.49741380534894,-1.4025384467209077,33.49809060819618
231.74741380534894,-1.4000337362081579,33.5015628543863
231.99741380534894,-1.3986877497183752,33.50466527802233
232.24741380534894,-1.39585542792909,33.509599076926236
232.49741380534894,-1.390645214604613,33.51875901320697
232.74741380534894,-1.3850202610633657,33.527547096449965
232.99741380534894,-1.3819193867326198,33.532691129160476
233.24741380534894,-1.3796763705901929,33.53690208700999
233.49741380534894,-1.3738318672172773,33.54448478499668
233.74741380534894,-1.3705521363553994,33.55090599877038
233.99741380534894,-1.3676838355432965,33.55649239567461
234.24741380534894,-1.3626238412940594,33.563257219394565
234.49741380534894,-1.3564631161482494,33.571632728523284
234.74741380534894,-1.3504992626985208,33.580668880530666
234.99741380534894,-1.3462874592492229,33.587698694280085
235.24741380534894,-1.3436959956878731,33.59124420721661
235.49741380534894,-1.3424367157259747,33.59295083196933
235.74741380534894,-1.3413611619325045,33.59555658482784
235.99741380534894,-1.3376541136640718,33.599118268470306
236.24741380534894,-1.3343847133829014,33.60283148900167
236.49741380534894,-1.3309825811201608,33.60789531666358
236.74741380534894,-1.3259847516725949,33.61515478193067
236.99741380534894,-1.3208118421555708,33.62249424661699
237.24741380534894,-1.317249400173256,33.62675177279883
237.49741380534894,-1.315924201306276,33.631860273065065
237.74741380534894,-1.3127713384031376,33.63767767072052
237.99741380534894,-1.3074530221472451,33.64339166669046
238.24741380534894,-1.3045993071646227,33.65162485263668
238.49741380534894,-1.2983968640562935,33.65978013617409
238.74741380534894,-1.2924585422339168,33.666344076456255
238.99741380534894,-1.2891787335630764,33.670884049099975
239.24741380534894,-1.2862262212602125,33.67495401978809
239.49741380534894,-1.2821906773941079,33.68070744012929
239.74741380534894,-1.278191812345595,33.68413681653571
239.99741380534894,-1.2724363836814971,33.692119314379674
240.24741380534894,-1.2661551482395237,33.70185711075126
240.49741380534894,-1.262971323273769,33.70585257409616
240.74741380534894,-1.260948774938122,33.71386430671891
240.99741380534894,-1.2534397190159332,33.72334650485364
241.24741380534894,-1.2452825571508481,33.73263274274996
241.49741380534894,-1.241449968041068,33.74173390006763
241.74741380534894,-1.237528978075055,33.75041245514448
241.99741380534894,-1.2295711614431257,33.76052320650584
242.24741380534894,-1.2232154778072546,33.76873773611276
242.49741380534894,-1.218959028246221,33.77512786550412
242.74741380534894,-1.2131273358819321,33.78273073219095
242.99741380534894,-1.206297619691351,33.79189082868373
243.24741380534894,-1.2010472311996956,33.80002639133147
243.49741380534894,-1.1972201999261907,33.806088922546174
243.74741380534894,-1.1950440700947296,33.80985552932864
243.99741380534894,-1.1935915381624622,33.81267696038097
244.24741380534894,-1.1888115861429231,33.817406808352104
244.49741380534894,-1.1849499330177706,33.820776827103195
244.74741380534894,-1.1818725250874749,33.82568439601958
244.99741380534894,-1.177402570615532,33.83345987558953
245.24741380534894,-1.1721471820472795,33.8400939556205
245.49741380534894,-1.1680312456730206,33.84502890109955
245.74741380534894,-1.1645780795312215,33.84782619221313
245.99741380534894,-1.1618625005227787,33.85062010544462
246.24741380534894,-1.159831972045741,33.85419060759097
246.49741380534894,-1.1574539868243852,33.85610538190239
246.74741380534894,-1.1552107998716328,33.857728563299524
246.99741380534894,-1.152763651887727,33.86057968149398
247.24741380534894,-1.1500431224137493,33.86456685314165
247.49741380534894,-1.146706268776348,33.86915425510869
247.74741380534894,-1.141725637931179,33.87496799832304
247.99741380534894,-1.1368051648406168,33.88219211274716
248.24741380534894,-1.1331210587609317,33.8875745081257
248.49741380534894,-1.1303743361028658,33.89152760954666
248.74741380534894,-1.1269663813485729,33.89707300186885
248.99741380534894,-1.1212503473268407,33.902653567962716
249.24741380534894,-1.1150070640715066,33.91027908717079
249.49741380534894,-1.1100390356427186,33.917076889070565
249.74741380534894,-1.1058467689520775,33.921712787541296
249.99741380534894,-1.1007169580981058,33.9275251898805
250.24741380534894,-1.0950731337607331,33.93378102787414
250.49741380534894,-1.0893939201495146,33.94092775896654
250.74741380534894,-1.0833463180301048,33.94898804203049
250.99741380534894,-1.0767920305029774,33.95594623322402
251.24741380534894,-1.0701579609530771,33.96035058178554
251.49741380534894,-1.0625729835628022,33.966830159369344
251.74741380534894,-1.0529704105266002,33.97616056722412
251.99741380534894,-1.0428097755721444,33.98585098556194
252.24741380534894,-1.03484335792967,33.99444588361491
252.49741380534894,-1.0286384629858256,34.003062417306516
252.74741380534894,-1.0187712469164756,34.010670922123694
252.99741380534894,-1.011065302831789,34.015789696341706
253.24741380534894,-1.0062265350826998,34.01964948585954
253.49741380534894,-0.9994694387098246,34.02419993952829
253.74741380534894,-0.9934252240814351,34.028375613294905
253.99741380534894,-0.9876452091943436,34.031884036391745
254.24741380534894,-0.9826317631270898,34.03428234887725
254.49741380534894,-0.9778772637772891,34.03651230343398
254.74741380534894,-0.9727577837871121,34.040155403750525
254.99741380534894,-0.9698713427314748,34.044140882482075
255.24741380534894,-0.9658598130563258,34.04650326529491
255.49741380534894,-0.9602830071395685,34.0495824173555
255.74741380534894,-0.9550481632627359,34.05381230812116
255.99741380534894,-0.9501633068514252,34.05673940662823
256.24741380534897,-0.9438160427827755,34.06255498451478
256.49741380534897,-0.9371267716345641,34.06770556245506
256.74741380534897,-0.9309074519535829,34.071804250280906
256.99741380534897,-0.9256071324188196,34.07681694047815
257.24741380534897,-0.9215266496933086,34.08154609371578
257.49741380534897,-0.9151487598571323,34.086727729118756
257.74741380534897,-0.9054478318035765,34.09114713655796
257.99741380534897,-0.8953190140879442,34.09565590188875
258.24741380534897,-0.8864968701249338,34.10223981197535
258.49741380534897,-0.8767700924315261,34.10895896620111
258.74741380534897,-0.8708615673126162,34.11168505124578
258.99741380534897,-0.8648887883507174,34.11621236293824
259.24741380534897,-0.8555781638485108,34.12386562017981
259.49741380534897,-0.8464345568674991,34.12907716087141
259.74741380534897,-0.8399191622711246,34.134040080452195
259.99741380534897,-0.833442368598928,34.13771528026871
260.24741380534897,-0.8270415962036343,34.141605284245145
260.49741380534897,-0.8220464481463284,34.14637244392409
260.74741380534897,-0.8183372087327753,34.149721894828815
260.99741380534897,-0.8158884920654519,34.15227307256265
261.24741380534897,-0.8119452377325724,34.15398089495923
261.49741380534897,-0.8075443964671779,34.15588465707964
261.74741380534897,-0.804220857043153,34.158309405316544
261.99741380534897,-0.8005488014025592,34.16012934317863
262.24741380534897,-0.7973364744010469,34.162470294355025
262.49741380534897,-0.7940205656654349,34.16475175592164
262.74741380534897,-0.7905572627899555,34.16712199153653
262.99741380534897,-0.7874241741875869,34.16995447375518
263.24741380534897,-0.7842410607134951,34.17234546248417
263.49741380534897,-0.780189129560574,34.17418473954158
263.74741380534897,-0.7763459626063213,34.17733791673785
263.99741380534897,-0.7700288234553241,34.18255968526213
264.24741380534897,-0.7606475240279866,34.18775512690589
264.49741380534897,-0.7551283649867073,34.19060457391625
264.74741380534897,-0.7492643114958458,34.194803018700306
264.99741380534897,-0.7429841464993959,34.19889729467364
265.24741380534897,-0.7382523051153632,34.20155696682097
265.49741380534897,-0.7346736333886057,34.20427422304184
265.74741380534897,-0.7306734670273832,34.20671206502311
265.99741380534897,-0.7259968907117934,34.207888033134275
266.24741380534897,-0.7215895579968463,34.21013793786185
266.49741380534897,-0.7186079329242707,34.2132717808327
266.74741380534897,-0.7168300405951179,34.21432026215881
266.99741380534897,-0.714284909772338,34.21526702779837
267.24741380534897,-0.712113593177622,34.21642697895068
267.49741380534897,-0.7098684275620993,34.21755212248411
267.74741380534897,-0.7067655587849526,34.21863823882497
267.99741380534897,-0.7030981599112769,34.22025061780793
268.24741380534897,-0.6980763652089992,34.223473674874924
268.49741380534897,-0.6931819930630416,34.22668436891137
268.74741380534897,-0.6887340777957032,34.229531371661054
268.99741380534897,-0.6843275319475828,34.232459489418474
269.24741380534897,-0.6798707044373673,34.2351719831645
269.49741380534897,-0.6737611427615018,34.23840992345302
269.74741380534897,-0.6674706452067145,34.24210709541023
269.99741380534897,-0.6613488367187301,34.246332957345004
270.24741380534897,-0.6551458225450325,34.250792604053245
270.49741380534897,-0.6497418979205328,34.25430572421167
270.74741380534897,-0.6434404003946996,34.25695588207621
270.99741380534897,-0.6368385630074074,34.26045324181041
271.24741380534897,-0.6301919328600789,34.26384118793039
271.49741380534897,-0.6237121912475273,34.266391113652624
271.74741380534897,-0.6187466881068117,34.27069678519885
271.99741380534897,-0.6131178840079338,34.27326821581768
272.24741380534897,-0.6084379264237939,34.274775855568535
272.49741380534897,-0.6046139080557839,34.27666259716473
272.74741380534897,-0.5995901277423688,34.27877893979482
272.99741380534897,-0.5948021276634287,34.28143573755298
273.24741380534897,-0.5897352358347044,34.2833045797159
273.49741380534897,-0.5859596136009395,34.28545448612218
273.74741380534897,-0.580020535140525,34.28854848806936
273.99741380534897,-0.5690922906685109,34.29132349588051
274.24741380534897,-0.564858664517979,34.29347185481596
274.49741380534897,-0.5602487739394177,34.294909527233074
274.74741380534897,-0.5539975632828719,34.29937224524222
274.99741380534897,-0.5449932788005969,34.30595034231424
275.24741380534897,-0.5286308160067124,34.309238536079455
275.49741380534897,-0.5172233292428857,34.31527494819239
275.74741380534897,-0.5078548042271527,34.32003788603692
275.99741380534897,-0.5006969853860129,34.32234907752637
276.24741380534897,-0.49640771372873793,34.3246891080764
276.49741380534897,-0.48773318783470454,34.326561875330334
276.74741380534897,-0.4809983196994385,34.32967990318481
276.99741380534897,-0.4755350909763652,34.33139408952436
277.24741380534897,-0.46775447136991466,34.33329021134203
277.49741380534897,-0.45816209962210025,34.33870202618047
277.74741380534897,-0.4499037398775788,34.34261833991768
277.99741380534897,-0.44069914408513383,34.3454135678668
278.24741380534897,-0.4348772637148363,34.34645829169122
278.49741380534897,-0.43189973831821865,34.347483694182614
278.74741380534897,-0.42542250616406874,34.35146582596746
278.99741380534897,-0.4220633752224504,34.353756267425204
279.24741380534897,-0.41911611798615783,34.35633949583111
279.49741380534897,-0.4133002116460748,34.358251971452226
279.74741380534897,-0.40732172757777774,34.35859701342961
279.99741380534897,-0.40530551296217177,34.360788605461444
280.24741380534897,-0.4016474093811333,34.36298132488635
280.49741380534897,-0.3967314483940708,34.36406209313564
280.74741380534897,-0.3933560624893837,34.365115219110294
280.99741380534897,-0.39142114495038116,34.366238563526956
281.24741380534897,-0.388549573620626,34.36569571145664
281.49741380534897,-0.38634240451157104,34.36808412882467
281.74741380534897,-0.38297825265056584,34.36995835334773
281.99741380534897,-0.3789557062061891,34.36971303113669
282.24741380534897,-0.3764930167588251,34.370635921148306
282.49741380534897,-0.37306972690968354,34.372058006653354
282.74741380534897,-0.3708649137645162,34.373705996691335
282.99741380534897,-0.3688597299188962,34.375004892493074
283.24741380534897,-0.3647246038863225,34.37600862382046
283.49741380534897,-0.36002231441891724,34.37742158686762
283.74741380534897,-0.35914281391606984,34.379033108977396
283.99741380534897,-0.3556969647258612,34.38090353590039
284.24741380534897,-0.35043085538158186,34.38237629050524
284.49741380534897,-0.34761979211379224,34.383966809564654
284.74741380534897,-0.34582912942355065,34.38642806106313
284.99741380534897,-0.3420573451823304,34.38610621927488
285.24741380534897,-0.33783557865516617,34.38697331795962
285.49741380534897,-0.33474659123977163,34.38957410455089
285.74741380534897,-0.33215991719649346,34.39148318892194
285.99741380534897,-0.3289616966858554,34.393848769456724
286.24741380534897,-0.32605224761297674,34.3948409558698
286.49741380534897,-0.32196140777131754,34.39568813062463
286.74741380534897,-0.31811796929894876,34.397362877099
286.99741380534897,-0.31701270712938734,34.39870707901498
287.24741380534897,-0.3144199478066509,34.399450463770584
287.49741380534897,-0.31140036481406896,34.40045872504939
287.74741380534897,-0.3088344671697889,34.40180622832848
287.99741380534897,-0.3061510891999443,34.402949895129524
288.24741380534897,-0.30336764133428334,34.40376661047947
288.49741380534897,-0.30171359043293816,34.404718041435096
288.74741380534897,-0.2997572778797729,34.405548362929736
288.99741380534897,-0.29717620058995065,34.406450631919476
289.24741380534897,-0.29493935602914767,34.407743993314675
289.49741380534897,-0.29319453244816784,34.40903470515026
289.74741380534897,-0.2915196240074721,34.40996773957388
289.99741380534897,-0.2887412746310673,34.4103503459351
290.24741380534897,-0.2841629179705578,34.41169504741568
290.49741380534897,-0.27676873474050423,34.415014233679294
290.74741380534897,-0.2670673871459172,34.418232000377046
290.99741380534897,-0.2665643941975299,34.4214647273589
291.24741380534897,-0.2649299682248935,34.423941786560675
291.49741380534897,-0.2536992848494751,34.425811590329225
291.74741380534897,-0.2427488719588515,34.42824062252094
291.99741380534897,-0.2403933555600901,34.43046578968984
292.24741380534897,-0.23632830119403922,34.43274766721925
