Depth,Temperature,Salinity
186.62218756404897,-1.5426243076903012,33.0744628236529
186.87218756404897,-1.5424450543126165,33.07765086345117
187.12218756404897,-1.5423774497103147,33.08092819938826
187.37218756404897,-1.5424287398004954,33.08374545002401
187.62218756404897,-1.5423548414240378,33.08587160152674
187.87218756404897,-1.5419363133376127,33.088122190077335
188.12218756404897,-1.5415737744537736,33.09231625192634
188.37218756404897,-1.5412431468003518,33.097133355744155
188.62218756404897,-1.5408990144676062,33.10179389377646
188.87218756404897,-1.5406581002947344,33.1057394982244
189.12218756404897,-1.5405920730910323,33.10804966731674
189.37218756404897,-1.5404355199664874,33.11121733248042
189.62218756404897,-1.5402023828805729,33.116578628529844
189.87218756404897,-1.5399020702254052,33.122498847509945
190.12218756404897,-1.5395102158562453,33.12723561695877
190.37218756404897,-1.5392280688191091,33.13229379686383
190.62218756404897,-1.5390027680714067,33.13584151983127
190.87218756404897,-1.538828239095568,33.138630321810005
191.12218756404897,-1.5386255424677118,33.14171504724342
191.37218756404897,-1.5381641337096317,33.14411885978906
191.62218756404897,-1.5374690302066785,33.14739721917119
191.87218756404897,-1.5369134382167329,33.151707541391424
192.12218756404897,-1.5363144231866954,33.15668155896439
192.37218756404897,-1.5355462744215245,33.16100961643786
192.62218756404897,-1.5352148564652026,33.16285343983293
192.87218756404897,-1.5343741959085462,33.16614841949807
193.12218756404897,-1.5332787614016146,33.17169572483367
193.37218756404897,-1.5324296531795598,33.176920391764575
193.62218756404897,-1.531686428268545,33.180003007828354
193.87218756404897,-1.5310987288771771,33.18272675179107
194.12218756404897,-1.530774216833925,33.185224009455936
194.37218756404897,-1.5301923651425833,33.18787599582256
194.62218756404897,-1.5291679811266166,33.191128253295304
194.87218756404897,-1.528462995314136,33.19446858518248
195.12218756404897,-1.5279417993153088,33.1976670220943
195.37218756404897,-1.527249386863469,33.201241483602026
195.62218756404897,-1.5263965231441352,33.204873953345164
195.87218756404897,-1.5256957701740448,33.20779257949476
196.12218756404897,-1.5251707688469878,33.21085241581886
196.37218756404897,-1.5242391028628066,33.21544002363913
196.62218756404897,-1.5232586542090836,33.22040671630391
196.87218756404897,-1.5225714458061848,33.223967985279096
197.12218756404897,-1.5216821107473253,33.22639231990319
197.37218756404897,-1.5205967100428024,33.22948822491488
197.62218756404897,-1.519246160431048,33.23453170854757
197.87218756404897,-1.517305813138976,33.24025625110559
198.12218756404897,-1.5151909583286554,33.24500638613401
198.37218756404897,-1.5141798147858234,33.24970006333407
198.62218756404897,-1.5125748412355868,33.25366456627237
198.87218756404897,-1.5112145241972277,33.255371958665535
199.12218756404897,-1.5105162348390255,33.25653265428721
199.37218756404897,-1.5091652839456027,33.2602390055876
199.62218756404897,-1.5080202689681539,33.26388315825352
199.87218756404897,-1.5065174807602988,33.26773889697968
200.12218756404897,-1.505052742861909,33.271411777516086
200.37218756404897,-1.504107152631989,33.274474033818606
200.62218756404897,-1.5029739201852081,33.27777027215972
200.87218756404897,-1.5019237282528175,33.28012416187325
201.12218756404897,-1.5005622845893263,33.28274422987322
201.37218756404897,-1.499058772210784,33.28686753426659
201.62218756404897,-1.4977022784367415,33.29173279450107
201.87218756404897,-1.495831569895538,33.295393381094144
202.12218756404897,-1.4948428997396739,33.29777231631999
202.37218756404897,-1.4942940243349623,33.300312684046965
202.62218756404897,-1.493117598610918,33.30356280918287
202.87218756404897,-1.4914347206900826,33.30677275107848
203.12218756404897,-1.489788653905054,33.31029435862386
203.37218756404897,-1.4887081730433824,33.313907465884895
203.62218756404897,-1.4868399668368104,33.318623817151966
203.87218756404897,-1.4837712580945526,33.32380135244576
204.12218756404897,-1.4819410286401549,33.32645005239379
204.37218756404897,-1.4808855356506199,33.3299227813683
204.62218756404897,-1.479640077580912,33.33340206868687
204.87218756404897,-1.4778414273673033,33.33610302829046
205.12218756404897,-1.4758417099649441,33.339461084830845
205.37218756404897,-1.4741705841843433,33.3434285347909
205.62218756404897,-1.4723044700167272,33.34707236151599
205.87218756404897,-1.4710012523369298,33.349964168669096
206.12218756404897,-1.4697803415039863,33.35325335271146
206.37218756404897,-1.4667674403600552,33.35824902271203
206.62218756404897,-1.4642922237384737,33.3629766480495
206.87218756404897,-1.462600566145788,33.36726601936018
207.12218756404897,-1.461143078116276,33.36975595762718
207.37218756404897,-1.4602589778355344,33.37025543409172
207.62218756404897,-1.4601201640139678,33.372644681917066
207.87218756404897,-1.4575441542765437,33.37742730084532
208.12218756404897,-1.454906434357316,33.38156695221116
208.37218756404897,-1.453230971548282,33.38445826929616
208.62218756404897,-1.4508343419342216,33.38780797085343
208.87218756404897,-1.4494166970942266,33.390634178300076
209.12218756404897,-1.447952267146285,33.394055783978565
209.37218756404897,-1.4447130820712253,33.3997497086814
209.62218756404897,-1.440965787971949,33.40568127722783
209.87218756404897,-1.4390314537857656,33.408791082680175
210.12218756404897,-1.4357525812431973,33.41368759283174
210.37218756404897,-1.4337650683831362,33.417258181467396
210.62218756404897,-1.433444014014657,33.42012937382231
210.87218756404897,-1.4315678451557432,33.42386153249731
211.12218756404897,-1.426585419555846,33.42546442449574
211.37218756404897,-1.4212957246751063,33.432179368617554
211.62218756404897,-1.4179497447064193,33.43944039314838
211.87218756404897,-1.4153945241050134,33.444154847420776
212.12218756404897,-1.4120751515648866,33.44988975314931
212.37218756404897,-1.4105654464494402,33.45433930992366
212.62218756404897,-1.4073960410279782,33.45918574681209
212.87218756404897,-1.4030535665337094,33.46480809805285
213.12218756404897,-1.3999692453538817,33.46984353380947
213.37218756404897,-1.3970959749314917,33.474175412842314
213.62218756404897,-1.3940575702747156,33.47946517281032
213.87218756404897,-1.390522644646819,33.48480122038884
214.12218756404897,-1.387127372274079,33.490285712336004
214.37218756404897,-1.3845028239842616,33.496670810704714
214.62218756404897,-1.3816293942651279,33.50215583165892
214.87218756404897,-1.3784782086964293,33.50688778580201
215.12218756404897,-1.3754858770120124,33.511963598381556
215.37218756404897,-1.3718597924377833,33.517681644883055
215.62218756404897,-1.3670117565886435,33.52302269516904
215.87218756404897,-1.3641234064019447,33.52713520743356
216.12218756404897,-1.3626138797807028,33.53187061784538
216.37218756404897,-1.3598811050663726,33.53727033936891
216.62218756404897,-1.355931965529557,33.54159751139693
216.87218756404897,-1.3541262537258936,33.54438905268098
217.12218756404897,-1.3528680237277413,33.54721554448655
217.37218756404897,-1.3498359086508325,33.55186864997958
217.62218756404897,-1.3459461094432477,33.55739425406552
217.87218756404897,-1.343617054734379,33.561396145135724
218.12218756404897,-1.3416879417920096,33.564865457367134
218.37218756404897,-1.3387526430993482,33.57095494711867
218.62218756404897,-1.3352614832730856,33.577442964437125
218.87218756404897,-1.3319425855241571,33.582062220909044
219.12218756404897,-1.3284812852827341,33.587173474885105
219.37218756404897,-1.324978518115003,33.59343685808893
219.62218756404897,-1.3210779845962242,33.601176223199275
219.87218756404897,-1.3172293569929259,33.60777760565504
220.12218756404897,-1.3146665640585462,33.611638065262724
220.37218756404897,-1.3134623355033408,33.616149790186
220.62218756404897,-1.3103763663440102,33.62007895235328
220.87218756404897,-1.306404999330684,33.625532233916694
221.12218756404897,-1.3037050461755244,33.630898073722705
221.37218756404897,-1.3015633901899235,33.6332791486227
221.62218756404897,-1.2978133899541664,33.64085979558614
221.87218756404897,-1.2943442271180372,33.64941141060373
222.12218756404897,-1.2911466240126446,33.656309393669716
222.37218756404897,-1.288086831896266,33.66097471315099
222.62218756404897,-1.286326251321835,33.66287873194973
222.87218756404897,-1.2820285081750773,33.67057821290198
223.12218756404897,-1.2767126608305595,33.68040771210026
223.37218756404897,-1.272374419227322,33.68835481526574
223.62218756404897,-1.2689575314460904,33.69458099150387
223.87218756404897,-1.266457855324832,33.69819691821341
224.12218756404897,-1.264333760234363,33.70268564215362
224.37218756404897,-1.2610125918459265,33.70943794484217
224.62218756404897,-1.2574788878684202,33.716075795883505
224.87218756404897,-1.2558139831248534,33.720642173595024
225.12218756404897,-1.2528430018399714,33.72652940413411
225.37218756404897,-1.2504464763795435,33.73171524802282
225.62218756404897,-1.2481777981725346,33.73650184748058
225.87218756404897,-1.2449355773495125,33.74226980440464
226.12218756404897,-1.2428565223268215,33.747069950133984
226.37218756404897,-1.2405574580233172,33.750856033946214
226.62218756404897,-1.236660354955894,33.75641342154686
226.87218756404897,-1.2317010948762477,33.764574022342785
227.12218756404897,-1.227711584987762,33.773355426140114
227.37218756404897,-1.225630218441571,33.7811661562397
227.62218756404897,-1.2218989858727451,33.78677832735256
227.87218756404897,-1.2172032735579679,33.794807924319926
228.12218756404897,-1.212965616098169,33.8060408895658
228.37218756404897,-1.2079814504444095,33.8152713811151
228.62218756404897,-1.2025493958846052,33.824055978550135
228.87218756404897,-1.1976404653355892,33.83084530748371
229.12218756404897,-1.1940581177744742,33.83581222434986
229.37218756404897,-1.1911792866802435,33.84101125624354
229.62218756404897,-1.1875959877242954,33.84659871094406
229.87218756404897,-1.1848437239866163,33.850948604305536
230.12218756404897,-1.1802407314138685,33.86090948743148
230.37218756404897,-1.174188874216023,33.8705738249395
230.62218756404897,-1.170152968347088,33.870677576184754
230.87218756404897,-1.1665287795971915,33.87586299126813
231.12218756404897,-1.1605132926116934,33.88641520665926
231.37218756404897,-1.1551201330030745,33.894582884860384
231.62218756404897,-1.1519925576430827,33.89875777448001
231.87218756404897,-1.1476158728551116,33.90447005544239
232.12218756404897,-1.141650297109387,33.910740694097676
232.37218756404897,-1.1384603363619756,33.91480507844001
232.62218756404897,-1.1351738281138832,33.91693883708525
232.87218756404897,-1.1286466309825773,33.919883893599014
233.12218756404897,-1.123237876880918,33.92527714886922
233.37218756404897,-1.1187021930390013,33.93162248337354
233.62218756404897,-1.111978545033907,33.94063905229576
233.87218756404897,-1.105001099286457,33.94606417582031
234.12218756404897,-1.0991349117364415,33.945741866487985
234.37218756404897,-1.0890265443067288,33.954340238299686
234.62218756404897,-1.084091203041459,33.959758544573546
234.87218756404897,-1.079194775952109,33.96366246939774
235.12218756404897,-1.0689199900672777,33.970587650408305
235.37218756404897,-1.0591774445509854,33.976039590706826
235.62218756404897,-1.0527178354147997,33.98051206978304
235.87218756404897,-1.0467411394745474,33.98565290451962
236.12218756404897,-1.0405182541772329,33.990356400640756
236.37218756404897,-1.0352638394496716,33.99311765305075
236.62218756404897,-1.0306211678786894,33.99527935652724
236.87218756404897,-1.0258902329056518,33.99875649499219
237.12218756404897,-1.0238775342434019,34.002522966325095
237.37218756404897,-1.0205345065636038,34.00592459386645
237.62218756404897,-1.0121524208582242,34.00948338549736
237.87218756404897,-1.0070320284881995,34.01343903279943
238.12218756404897,-1.0030201664677576,34.019362163521386
238.37218756404897,-0.9989147927929094,34.024407293110265
238.62218756404897,-0.9952090636257582,34.027283221943016
238.87218756404897,-0.9919781523970308,34.02987557829308
239.12218756404897,-0.989307405192554,34.031727884146704
239.37218756404897,-0.9857110153761584,34.03648742625165
239.62218756404897,-0.9823063777811306,34.042385109837994
239.87218756404897,-0.9792698421611522,34.046901562718965
240.12218756404897,-0.9743430626068605,34.05197119780808
240.37218756404897,-0.9698022647917537,34.05705407352172
240.62218756404897,-0.9656910239485892,34.061715170778925
240.87218756404897,-0.9634648108945285,34.06484245280938
241.12218756404897,-0.96255575995014,34.06665795195375
241.37218756404897,-0.957652724918056,34.069821058109554
241.62218756404897,-0.9534028498255596,34.07251785429873
241.87218756404897,-0.9471670846247425,34.07661385801091
242.12218756404897,-0.9391526534520804,34.08204099120824
242.37218756404897,-0.9348331282693041,34.085447539669495
242.62218756404897,-0.9313466875247234,34.08766904190391
242.87218756404897,-0.9276262874961926,34.0902950994698
243.12218756404897,-0.9206424610408288,34.09486510904071
243.37218756404897,-0.9105596928127567,34.0994941293633
243.62218756404897,-0.9031850733387234,34.10121042654016
243.87218756404897,-0.8980978133306831,34.10628682310938
244.12218756404897,-0.8906348407556146,34.10972214289431
244.37218756404897,-0.88269814067064,34.111907951604636
244.62218756404897,-0.8775019047009371,34.118085825611274
244.87218756404897,-0.8703768880207595,34.12418744526764
245.12218756404897,-0.8654862599305362,34.1266579354375
245.37218756404897,-0.8602601749936379,34.12744568641259
245.62218756404897,-0.8546704626140144,34.13037788624462
245.87218756404897,-0.851586304500848,34.13538614995425
246.12218756404897,-0.8446275457139731,34.13781874201943
246.37218756404897,-0.8390326131898316,34.14046906341371
246.62218756404897,-0.8335515351969586,34.14330525861514
246.87218756404897,-0.8257358434689542,34.14647240267839
247.12218756404897,-0.8195978059725105,34.151652982253545
247.37218756404897,-0.815556397971249,34.153439111653896
247.62218756404897,-0.8072314463198015,34.15603339494636
247.87218756404897,-0.7979686000683057,34.16048681633077
248.12218756404897,-0.7919890110254836,34.16428864598257
248.37218756404897,-0.782290484470794,34.168559015124444
248.62218756404897,-0.7739629232368059,34.172468210915696
248.87218756404897,-0.7666231793638256,34.17616706933977
249.12218756404897,-0.7597099196178387,34.18041719611717
249.37218756404897,-0.7548412061752373,34.18464081325098
249.62218756404897,-0.7497558573750412,34.18670945778421
249.87218756404897,-0.7455668618765368,34.18894883411474
250.12218756404897,-0.7414986371107055,34.192505334382176
250.37218756404897,-0.7372620205977961,34.194943750903654
250.62218756404897,-0.7348823565053199,34.19451625091814
250.87218756404897,-0.7324497465312024,34.19759637070499
251.12218756404897,-0.7284350726178143,34.201513869307036
251.37218756404897,-0.725056682687159,34.203412540370884
251.62218756404897,-0.7228218638959596,34.20484742183944
251.87218756404897,-0.7166371445692797,34.20732276943274
252.12218756404897,-0.7124610898943683,34.21033006597537
252.37218756404897,-0.7107305419604522,34.213038938227434
252.62218756404897,-0.7062802747834731,34.21529016400927
252.87218756404897,-0.6987343687969104,34.21762385791673
253.12218756404897,-0.6968509058549746,34.22057235510609
253.37218756404897,-0.6928971781786306,34.2236690591024
253.62218756404897,-0.6873155266455934,34.22557714048915
253.87218756404897,-0.6838626641913598,34.227285229734356
254.12218756404897,-0.6790939986983281,34.23103965769759
254.37218756404897,-0.6728882961525909,34.23316570116556
254.62218756404897,-0.6676994289854735,34.23508865509722
254.87218756404897,-0.6637342615884897,34.23766092089997
255.12218756404897,-0.6600049801142206,34.24014538419257
255.37218756404897,-0.6571376092114923,34.24270326600733
255.62218756404897,-0.6530331224674489,34.242452367535435
255.87218756404897,-0.6479326603377275,34.2434727576604
256.122187564049,-0.6430804762517484,34.246983438150316
256.372187564049,-0.6389111087079595,34.24918253084171
256.622187564049,-0.6354681823795756,34.252434820242506
256.872187564049,-0.6314392087908011,34.25546185216862
257.122187564049,-0.6276315591601845,34.25777516828388
257.372187564049,-0.6252748707903204,34.25994405534096
257.622187564049,-0.6235818138819827,34.26173400611521
257.872187564049,-0.6219611566877196,34.263211180484966
258.122187564049,-0.6208390280456946,34.264328472926216
258.372187564049,-0.6191123856737999,34.26616696473301
258.622187564049,-0.6163579132008377,34.26882237585289
258.872187564049,-0.6151053902622822,34.27013273607222
259.122187564049,-0.6144232724940647,34.27173780365209
259.372187564049,-0.6120544084775817,34.27446840212902
259.622187564049,-0.6086983187943984,34.277049343239206
259.872187564049,-0.6065264193722101,34.27854276145077
260.122187564049,-0.6043055854449976,34.280670246055294
260.372187564049,-0.6015064408478443,34.28270572375542
260.622187564049,-0.5976374753208574,34.284785633012945
260.872187564049,-0.5927095672695306,34.28724104488141
261.122187564049,-0.5877366120718378,34.289450988766944
261.372187564049,-0.583792403539538,34.29144063507716
261.622187564049,-0.5804668078376102,34.294088122594175
261.872187564049,-0.576511048156093,34.297315281011485
262.122187564049,-0.5715047556513694,34.300018142338516
262.372187564049,-0.566942197608829,34.30159335403509
262.622187564049,-0.5644745267065083,34.303102903126614
262.872187564049,-0.5614971611051559,34.30493340272914
263.122187564049,-0.5571231084770225,34.307040718163236
263.372187564049,-0.5530562243719501,34.30917832329737
263.622187564049,-0.5476862609460089,34.31084951272553
263.872187564049,-0.5413553117141513,34.31382870351589
264.122187564049,-0.5346117501927401,34.317294864511666
264.372187564049,-0.5288279707560108,34.31983862304749
264.622187564049,-0.5247768105056033,34.32229844837986
264.872187564049,-0.5188235691047061,34.32532966662815
265.122187564049,-0.5154315146269256,34.327142476295435
265.372187564049,-0.5135566365227896,34.3275681567415
265.622187564049,-0.5092227713864907,34.328449619136265
265.872187564049,-0.5047015969057669,34.330864987999
266.122187564049,-0.5017145364419748,34.33335020770227
266.372187564049,-0.4987797724812014,34.33465952883896
266.622187564049,-0.4948397661708811,34.33575433345739
266.872187564049,-0.49097229527973196,34.337954900531074
267.122187564049,-0.4882936313019345,34.33999053766239
267.372187564049,-0.48497728823040676,34.34127708641566
267.622187564049,-0.48128128068974557,34.342510880387536
267.872187564049,-0.4785377062490695,34.343900441113334
268.122187564049,-0.47598378952810855,34.34531883259462
268.372187564049,-0.4709908434620299,34.34842305374781
268.622187564049,-0.46785781700450074,34.350825187046155
268.872187564049,-0.46541051460893523,34.352217477694104
269.122187564049,-0.4608967994727618,34.354005906552814
269.372187564049,-0.4576144034611924,34.355938164692894
269.622187564049,-0.454717413448269,34.357998532413404
269.872187564049,-0.4514293046794802,34.35935951575417
270.122187564049,-0.44878585603396653,34.360532993714486
270.372187564049,-0.44690778474692056,34.36248151799019
270.622187564049,-0.4431252897762407,34.36414963572467
270.872187564049,-0.440459415158973,34.36626488643889
271.122187564049,-0.438168414123381,34.36857690116908
271.372187564049,-0.4349759474320012,34.37035020777083
271.622187564049,-0.432008653901057,34.3716545613641
271.872187564049,-0.4287120892540474,34.37321140006863
272.122187564049,-0.4268497949061931,34.375533574652465
272.372187564049,-0.42459409241520385,34.37765680432692
272.622187564049,-0.42176850685468004,34.37915069840302
272.872187564049,-0.4216614927411391,34.381011560386646
273.122187564049,-0.41656730108655393,34.381853937107955
273.372187564049,-0.4106601673698598,34.383164834150335
273.622187564049,-0.4074825851128655,34.38491861318373
273.872187564049,-0.40503346705863225,34.38610864573501
274.122187564049,-0.40289099002987677,34.388414557244765
274.372187564049,-0.3988352396255385,34.390201275307824
