Depth,Temperature,Salinity
185.61094640180713,-1.538003799599827,33.07493902650811
185.86094640180713,-1.537946702535175,33.07913403518369
186.11094640180713,-1.5377900156113227,33.08343259240807
186.36094640180713,-1.5377079321070126,33.08650223263495
186.61094640180713,-1.5376552958260756,33.08961914381738
186.86094640180713,-1.5374978899241236,33.09408381930439
187.11094640180713,-1.5373184068686452,33.097706028900966
187.36094640180713,-1.5371554555455917,33.10148333821932
187.61094640180713,-1.5366329770509954,33.10627251800764
187.86094640180713,-1.5361346665233717,33.11072353418689
188.11094640180713,-1.535980116566098,33.113832872464975
188.36094640180713,-1.5354296140881762,33.11737882369675
188.61094640180713,-1.5351121714295064,33.12177357256683
188.86094640180713,-1.5350609942159228,33.125983767402566
189.11094640180713,-1.5350058056718405,33.12958651752001
189.36094640180713,-1.5348736204905826,33.13281508684535
189.61094640180713,-1.5346666588745839,33.13576215436876
189.86094640180713,-1.5341419805918648,33.13898703362513
190.11094640180713,-1.5334921898305711,33.14228512130399
190.36094640180713,-1.5328895454665918,33.14502326762343
190.61094640180713,-1.5324159745567723,33.14695748506047
190.86094640180713,-1.5318816409991374,33.14881159438875
191.11094640180713,-1.530370499544559,33.1520975147676
191.36094640180713,-1.5282581856767499,33.157498573880304
191.61094640180713,-1.5271113528346023,33.16248244388382
191.86094640180713,-1.5268393123365323,33.16581807748896
192.11094640180713,-1.525498238554907,33.169932511120166
192.36094640180713,-1.5234567233406304,33.1752699832754
192.61094640180713,-1.521650668002516,33.179485157973865
192.86094640180713,-1.5201449615933544,33.183104613684655
193.11094640180713,-1.5189833003425668,33.18844459359627
193.36094640180713,-1.518360430619226,33.195128410113455
193.61094640180713,-1.5172897093327793,33.19971212516406
193.86094640180713,-1.515833545546356,33.20493287821494
194.11094640180713,-1.5145952059919392,33.20995333901728
194.36094640180713,-1.5138045178172401,33.2130724739233
194.61094640180713,-1.5131788883551556,33.2157923217549
194.86094640180713,-1.5124129473142645,33.21945245168951
195.11094640180713,-1.5110210607924401,33.22357766584664
195.36094640180713,-1.5093248517809827,33.22735213143568
195.61094640180713,-1.5074328459165176,33.23061699615941
195.86094640180713,-1.5055759114591742,33.233910950514115
196.11094640180713,-1.5049351846027774,33.237714079106034
196.36094640180713,-1.5046224832373674,33.241427287216766
196.61094640180713,-1.504242856362988,33.244186003944165
196.86094640180713,-1.5035252491334392,33.24689948432415
197.11094640180713,-1.5021982036635828,33.250645468164386
197.36094640180713,-1.5008047723953386,33.254311685432235
197.61094640180713,-1.5003329382001018,33.257413441191076
197.86094640180713,-1.4993327531916327,33.260677639971234
198.11094640180713,-1.4975603572465896,33.264713866764424
198.36094640180713,-1.495640971196809,33.26913395044375
198.61094640180713,-1.4929711423671572,33.27333806552711
198.86094640180713,-1.4887515203885235,33.27804253868625
199.11094640180713,-1.480858943330456,33.282217687835185
199.36094640180713,-1.4757126883247196,33.28780948071667
199.61094640180713,-1.4768816985859192,33.29495964590381
199.86094640180713,-1.4784743284222839,33.2997195331665
200.11094640180713,-1.4841553227491115,33.304244203326064
200.36094640180713,-1.4872039447622707,33.30752980001355
200.61094640180713,-1.4863399490371725,33.31021125007599
200.86094640180713,-1.485437123400543,33.31407910674666
201.11094640180713,-1.4840676622204707,33.318488494046015
201.36094640180713,-1.4819194908120066,33.32224047728593
201.61094640180713,-1.4799523518213076,33.325613798461596
201.86094640180713,-1.4785002353082028,33.32912047596344
202.11094640180713,-1.4770041721991873,33.33270098334208
202.36094640180713,-1.4751317358216651,33.336104301438716
202.61094640180713,-1.4731830156359147,33.33964127337762
202.86094640180713,-1.470726993711199,33.34352749427175
203.11094640180713,-1.4676448444394972,33.34756023703128
203.36094640180713,-1.464637774473137,33.35112020527489
203.61094640180713,-1.4625276569538321,33.35377457834274
203.86094640180713,-1.461080231017539,33.356272955720534
204.11094640180713,-1.4594522016382498,33.35838164739724
204.36094640180713,-1.4573658018706763,33.360487639569726
204.61094640180713,-1.4555519293292412,33.36368886861522
204.86094640180713,-1.4545406063945288,33.36808988856479
205.11094640180713,-1.4527273756900767,33.372314031137364
205.36094640180713,-1.450779347562657,33.376144573987105
205.61094640180713,-1.4491991602285785,33.37983172981808
205.86094640180713,-1.4476983351617727,33.3836165808321
206.11094640180713,-1.4462367162307461,33.38768476443523
206.36094640180713,-1.4446676876586555,33.39170093405601
206.61094640180713,-1.4428214067019502,33.39523771060491
206.86094640180713,-1.4407746001759485,33.398814503872025
207.11094640180713,-1.4387217618868522,33.40294104926776
207.36094640180713,-1.4367433253705744,33.40712095488652
207.61094640180713,-1.4347383291596605,33.41057819010907
207.86094640180713,-1.432418941384983,33.413629787103524
208.11094640180713,-1.4300706975523838,33.41736077514819
208.36094640180713,-1.4273344136585013,33.42216059770844
208.61094640180713,-1.4237069476181399,33.42794300471523
208.86094640180713,-1.4202304614784396,33.43508515403102
209.11094640180713,-1.4165014490916374,33.441496899746596
209.36094640180713,-1.4140093684505737,33.44746124077138
209.61094640180713,-1.4130663104737717,33.45294870539995
209.86094640180713,-1.4120588923724968,33.45720741093927
210.11094640180713,-1.4107080652181325,33.46163102420847
210.36094640180713,-1.409293687577318,33.46602014076009
210.61094640180713,-1.406810927653527,33.47123598565087
210.86094640180713,-1.4019388934999293,33.47759479570567
211.11094640180713,-1.3951525735979653,33.48415900449108
211.36094640180713,-1.3890844998877696,33.49059987769881
211.61094640180713,-1.3838471403410426,33.49693604337363
211.86094640180713,-1.3793300197550342,33.50353940403183
212.11094640180713,-1.3752021309628235,33.51044247702301
212.36094640180713,-1.3709777559613945,33.5172811519061
212.61094640180713,-1.367151878802561,33.52400201148075
212.86094640180713,-1.3638100089534395,33.53029416858471
213.11094640180713,-1.3607831912535424,33.53629284680555
213.36094640180713,-1.3575700687306687,33.5418640427596
213.61094640180713,-1.3539974285082375,33.5467309059469
213.86094640180713,-1.3509824179162286,33.55160515432915
214.11094640180713,-1.348010195650407,33.55636789645369
214.36094640180713,-1.345005458343768,33.56102897234752
214.61094640180713,-1.3419596852859537,33.5658297641029
214.86094640180713,-1.338676962936849,33.57084494095328
215.11094640180713,-1.3355894423810972,33.57588275603326
215.36094640180713,-1.3324249435474285,33.580923964914085
215.61094640180713,-1.329514358163032,33.58598312175136
215.86094640180713,-1.3266501477683301,33.590741747099855
216.11094640180713,-1.3232279920047798,33.595506925751664
216.36094640180713,-1.3200292653836856,33.601469621883865
216.61094640180713,-1.3175070036304293,33.60605086027517
216.86094640180713,-1.314953679301894,33.610074135618994
217.11094640180713,-1.312212152789883,33.614429027239154
217.36094640180713,-1.3095642549151152,33.61877165026688
217.61094640180713,-1.3063831036098974,33.62429492103947
217.86094640180713,-1.302627563413777,33.631646847606
218.11094640180713,-1.298523621419377,33.63920234485085
218.36094640180713,-1.294418302988658,33.6464959129059
218.61094640180713,-1.2906250676054245,33.65422510020447
218.86094640180713,-1.287157946970483,33.66154844484533
219.11094640180713,-1.283639860406264,33.66780394740739
219.36094640180713,-1.280269796991647,33.673602259185905
219.61094640180713,-1.2771579170057152,33.679375477812265
219.86094640180713,-1.274119110668683,33.68478893942932
220.11094640180713,-1.2712216628656499,33.689631581121745
220.36094640180713,-1.2683885441950487,33.69379747094798
220.61094640180713,-1.2660646567312708,33.69737690523654
220.86094640180713,-1.2634238718331778,33.70140197602054
221.11094640180713,-1.2593864150764933,33.707007704234464
221.36094640180713,-1.255536389403862,33.71350837686531
221.61094640180713,-1.252652214514269,33.719363539848736
221.86094640180713,-1.2497590726771135,33.724578774057605
222.11094640180713,-1.2464881089390112,33.72973101628835
222.36094640180713,-1.2434318156956972,33.7350078739478
222.61094640180713,-1.2403411873293697,33.740942323393206
222.86094640180713,-1.2363141271907176,33.74925078669
223.11094640180713,-1.2319020326109353,33.75847991903401
223.36094640180713,-1.2269607234879913,33.76835923033728
223.61094640180713,-1.2218893912315223,33.778458093859626
223.86094640180713,-1.218647431446363,33.78586860554323
224.11094640180713,-1.2163085162465874,33.791019985751475
224.36094640180713,-1.2134077592399353,33.795824997403145
224.61094640180713,-1.2099619942030155,33.80121735428945
224.86094640180713,-1.2067971402003728,33.80642695318596
225.11094640180713,-1.2039416494557336,33.810626869614204
225.36094640180713,-1.2005984997385686,33.81567180222294
225.61094640180713,-1.1967411446142528,33.822195835302594
225.86094640180713,-1.1929506575253452,33.82900240011492
226.11094640180713,-1.189803901716529,33.834855649073134
226.36094640180713,-1.1873204330610805,33.84016863482738
226.61094640180713,-1.184787007871983,33.845935029842714
226.86094640180713,-1.1820756163405537,33.850812100123484
227.11094640180713,-1.179102333938624,33.85532304629081
227.36094640180713,-1.1755773273831247,33.86067564564893
227.61094640180713,-1.1714623533007997,33.86592576734902
227.86094640180713,-1.167304761762487,33.87175463038844
228.11094640180713,-1.162948786120995,33.87781545395284
228.36094640180713,-1.1579618585806255,33.88422222981543
228.61094640180713,-1.1526412359162446,33.890942911837094
228.86094640180713,-1.147956271515121,33.89664586198534
229.11094640180713,-1.1437590157520967,33.901120021792984
229.36094640180713,-1.1399082179283537,33.90597380887526
229.61094640180713,-1.135844171277843,33.910955779650536
229.86094640180713,-1.1308401940239485,33.91528383372174
230.11094640180713,-1.1247764943239884,33.92050995052393
230.36094640180713,-1.1181384695509384,33.92712615573595
230.61094640180713,-1.1116883238132926,33.933158055536715
230.86094640180713,-1.1047471706065386,33.93868361213029
231.11094640180713,-1.0970905777382132,33.94511080693084
231.36094640180713,-1.0908318767897425,33.95107584333545
231.61094640180713,-1.0850642331381526,33.95467334212045
231.86094640180713,-1.0769364828358956,33.960413834873904
232.11094640180713,-1.0688427219304046,33.967671745635
232.36094640180713,-1.0626980170472444,33.97204888029479
232.61094640180713,-1.0520689939559993,33.97725504990118
232.86094640180713,-1.0453986400973547,33.98352515102229
233.11094640180713,-1.0366664213056351,33.98953021786948
233.36094640180713,-1.0242897942622378,33.99638549932392
233.61094640180713,-1.0173704348596557,34.00494462328274
233.86094640180713,-1.010254090677399,34.00964052231117
234.11094640180713,-1.0058564955873137,34.011239568084314
234.36094640180713,-1.0011781408203375,34.01484400635464
234.61094640180713,-0.9949521295512994,34.02030844436785
234.86094640180713,-0.9931627900701049,34.021969426815026
235.11094640180713,-0.9919859164771718,34.0225763589457
235.36094640180713,-0.990039779960084,34.022635499015465
235.61094640180713,-0.9843562668184057,34.02691123571387
235.86094640180713,-0.9768020227189131,34.035591581488454
236.11094640180713,-0.9760762365614873,34.03856643086727
236.36094640180713,-0.9758206038130046,34.03886411563187
236.61094640180713,-0.9749553355868837,34.038620648881476
236.86094640180713,-0.9718108900818317,34.041407027306334
237.11094640180713,-0.9658061267686198,34.04797398429781
237.36094640180713,-0.963666659784931,34.05055739744445
237.61094640180713,-0.9617024853252006,34.0508456586338
237.86094640180713,-0.9605418077364397,34.05091740441216
238.11094640180713,-0.956411676264958,34.05339393341868
238.36094640180713,-0.9457920713329089,34.060126523563326
238.61094640180713,-0.942272792819312,34.06675620783144
238.86094640180713,-0.9409405440363703,34.06914164318007
239.11094640180713,-0.9402533141447074,34.06882795457552
239.36094640180713,-0.9375102732634265,34.07056292437691
239.61094640180713,-0.9273020265301797,34.07618048584501
239.86094640180713,-0.9216446823089989,34.08123792119187
240.11094640180713,-0.9203267923217029,34.08316174038203
240.36094640180713,-0.9191830358520253,34.08314127805779
240.61094640180713,-0.91833050934776,34.083033171387186
240.86094640180713,-0.9170404467119231,34.084338488259434
241.11094640180713,-0.9029014416405899,34.0921965830005
241.36094640180713,-0.8936989682901132,34.099908596544594
241.61094640180713,-0.8942670952430303,34.10230016973148
241.86094640180713,-0.8927590448183698,34.101724849480036
242.11094640180713,-0.8911703402460597,34.101609873813935
242.36094640180713,-0.8902940474084884,34.10222217343422
242.61094640180713,-0.8796590947933719,34.10661750920609
242.86094640180713,-0.863791798325115,34.114439290128146
243.11094640180713,-0.8578482106721811,34.1206489941122
243.36094640180713,-0.8562752624274138,34.12274450493751
243.61094640180713,-0.8557593700611001,34.12292131971232
243.86094640180713,-0.8502242798602767,34.12660821226525
244.11094640180713,-0.8376247284084213,34.13360582239463
244.36094640180713,-0.8253228492160591,34.13840926788104
244.61094640180713,-0.8218646102477134,34.141530361117674
244.86094640180713,-0.8210825726549177,34.142159563548546
245.11094640180713,-0.8199105110021667,34.141739138550385
245.36094640180713,-0.818568478232885,34.141775540770794
245.61094640180713,-0.8150188202617968,34.14237932828796
245.86094640180713,-0.8090990849235059,34.146872138826694
246.11094640180713,-0.7969597603199557,34.154512956976795
246.36094640180713,-0.7875597931210931,34.16116459662152
246.61094640180713,-0.787624994950177,34.163856726367584
246.86094640180713,-0.7858943245115928,34.16398761469652
247.11094640180713,-0.7848184642426661,34.16466968969075
247.36094640180713,-0.7788515592144937,34.1687812811924
247.61094640180713,-0.7711767435962713,34.17514879048229
247.86094640180713,-0.7700419105425945,34.17951912557702
248.11094640180713,-0.7693473737238544,34.17995903063661
248.36094640180713,-0.7684052880756632,34.179568146121795
248.61094640180713,-0.7683304588914925,34.17964213382873
248.86094640180713,-0.7667124477430742,34.181170674155
249.11094640180713,-0.7606619324784368,34.18607369363343
249.36094640180713,-0.7542360852193022,34.19367538016319
249.61094640180713,-0.7513006192245232,34.19721855009004
249.86094640180713,-0.7504553613269843,34.19708436886624
250.11094640180713,-0.7497334718281985,34.19749430127507
250.36094640180713,-0.7487335972888599,34.198678808952174
250.61094640180713,-0.7439377079859971,34.19824685273044
250.86094640180713,-0.734711595797401,34.20440666480597
251.11094640180713,-0.7288758714553791,34.21214233766604
251.36094640180713,-0.729386373368063,34.21361163825713
251.61094640180713,-0.728462370892295,34.21302411930986
251.86094640180713,-0.7268261914660537,34.212713512113886
252.11094640180713,-0.7275191835100722,34.212489266339524
252.36094640180713,-0.7185502042286623,34.21593080368853
252.61094640180713,-0.7016872910713507,34.223641667765186
252.86094640180713,-0.7014223275592361,34.22840641756312
253.11094640180713,-0.7013480902323429,34.22879110938479
253.36094640180713,-0.701018412344079,34.22868984540484
253.61094640180713,-0.697688694275667,34.230199216962376
253.86094640180713,-0.6875528930962026,34.233808869246516
254.11094640180713,-0.6800688508990149,34.239913841505526
254.36094640180713,-0.6783985493617466,34.242595474534404
254.61094640180713,-0.678232139293092,34.24264988059795
254.86094640180713,-0.6773632113245903,34.24281956108853
255.11094640180713,-0.6764982002371144,34.243278433555574
255.36094640180713,-0.6728645183870703,34.24403352001359
255.61094640180713,-0.6631498129649646,34.24931992767293
255.86094640180713,-0.6572656090976462,34.25470000413109
256.11094640180715,-0.6579190085280271,34.25607806707559
256.36094640180715,-0.6568856617337097,34.25582133463172
256.61094640180715,-0.6556946411825272,34.25620175587348
256.86094640180715,-0.655838266431756,34.25571760191508
257.11094640180715,-0.6481821497652008,34.25916094747638
257.36094640180715,-0.6360973013552297,34.26630171483171
257.61094640180715,-0.634748856276376,34.2691999149169
257.86094640180715,-0.6342038627793328,34.2695774436064
258.11094640180715,-0.6331098048991217,34.26927662956624
258.36094640180715,-0.631919958908006,34.26918645792882
258.61094640180715,-0.6305814244656673,34.26893263485062
258.86094640180715,-0.6264850816849562,34.26954422370246
259.11094640180715,-0.610051566368099,34.2768493803335
259.36094640180715,-0.5969808829648089,34.28289538451484
259.61094640180715,-0.5933238119466977,34.28483826190123
259.86094640180715,-0.5923608451463347,34.28562337429104
260.11094640180715,-0.5913571847523281,34.28533160620963
260.36094640180715,-0.5896818600947371,34.2855310075611
260.61094640180715,-0.5866573595382915,34.28729115690778
260.86094640180715,-0.5775117072133628,34.291218552312515
261.11094640180715,-0.5647747395442025,34.296419731180755
261.36094640180715,-0.5613451688551079,34.30014708254065
261.61094640180715,-0.5606289314100259,34.30117401738317
261.86094640180715,-0.559959579449913,34.30098706363217
262.11094640180715,-0.5593185193783571,34.300979042115486
262.36094640180715,-0.5584712435842514,34.3009147515018
262.61094640180715,-0.5573400132325366,34.30083538656223
262.86094640180715,-0.551220722677425,34.30476024446967
263.11094640180715,-0.5404385001525726,34.30975157242083
263.36094640180715,-0.5326075473379882,34.312849487250766
263.61094640180715,-0.532587788575604,34.31456056944672
263.86094640180715,-0.5320040091218222,34.31432906105596
264.11094640180715,-0.528034589203973,34.31495617765203
264.36094640180715,-0.5250944231432779,34.316455418019046
264.61094640180715,-0.524847038522386,34.317013571887315
264.86094640180715,-0.522888625771252,34.31801068967441
265.11094640180715,-0.5177140850905012,34.32407317452859
265.36094640180715,-0.514270238472333,34.32705422641208
265.61094640180715,-0.5127342592279334,34.327694029963745
265.86094640180715,-0.5089105503099433,34.32942857411778
266.11094640180715,-0.5025780273834083,34.330309444339434
266.36094640180715,-0.5009348037846845,34.33269208693615
266.61094640180715,-0.4965572895729754,34.332646757981976
266.86094640180715,-0.49136145034943707,34.33201173532944
267.11094640180715,-0.4905024326819413,34.33326880830968
267.36094640180715,-0.48927122983756566,34.332853837391134
267.61094640180715,-0.48748448683023116,34.33223395626378
267.86094640180715,-0.4870375358635761,34.33180704849883
268.11094640180715,-0.4793208845996496,34.33429384161417
268.36094640180715,-0.4608917018753092,34.34074508068849
268.61094640180715,-0.44745401324623185,34.34656491814369
268.86094640180715,-0.4449919126606974,34.35006038689106
269.11094640180715,-0.4454292554577963,34.35038315742277
269.36094640180715,-0.44369035095154286,34.34963148646262
269.61094640180715,-0.4426975307594829,34.34995582559831
269.86094640180715,-0.44063121716358966,34.350716723140984
270.11094640180715,-0.419004838846332,34.35582821465081
270.36094640180715,-0.4036207870246264,34.363080388706216
270.61094640180715,-0.4047140688374651,34.367326033224415
270.86094640180715,-0.4038621806488597,34.36736243313756
271.11094640180715,-0.40323627812949747,34.3671207156969
271.36094640180715,-0.4026509950313106,34.36661386442375
271.61094640180715,-0.4016115022338844,34.36647387518166
271.86094640180715,-0.40086240874697954,34.366631772960616
272.11094640180715,-0.3980989535169462,34.36782040041513
272.36094640180715,-0.3866777389278888,34.37399628667402
272.61094640180715,-0.3752604947664001,34.379779925290364
272.86094640180715,-0.371008820909358,34.38307769645425
