Depth,Temperature,Salinity
190.7584128957677,-1.5419749381030246,33.095695638829255
191.0084128957677,-1.5414650495761857,33.09959431218159
191.2584128957677,-1.5413834201715035,33.10078608926342
191.5084128957677,-1.5413376845802773,33.10370425572869
191.7584128957677,-1.5408451962552405,33.10858640634757
192.0084128957677,-1.5401193082748499,33.11260139686468
192.2584128957677,-1.5398684382922248,33.11566305988372
192.5084128957677,-1.5395474054519505,33.121523384364764
192.7584128957677,-1.539061821513976,33.12606398763157
193.0084128957677,-1.5386023334194388,33.12965162435548
193.2584128957677,-1.5382128606733578,33.1340717969038
193.5084128957677,-1.53766974364378,33.13798291462867
193.7584128957677,-1.5369998875133024,33.140454952069064
194.0084128957677,-1.5369207528732842,33.14456642069809
194.2584128957677,-1.5370783650972506,33.148945581456665
194.5084128957677,-1.5371027247526132,33.1515001419644
194.7584128957677,-1.536682499634029,33.1547116249682
195.0084128957677,-1.5359106627261807,33.160032811470636
195.2584128957677,-1.5353635213701335,33.16416250688922
195.5084128957677,-1.5349450520860157,33.167671622148546
195.7584128957677,-1.5338733768178616,33.171419127549115
196.0084128957677,-1.532622187706851,33.17750556509663
196.2584128957677,-1.531656948274539,33.184250392049
196.5084128957677,-1.5307712480825144,33.189472770009715
196.7584128957677,-1.5299291798654777,33.195103178674174
197.0084128957677,-1.5294162116260575,33.19966673014509
197.2584128957677,-1.5290128740810411,33.20287199120019
197.5084128957677,-1.5286530604679014,33.20676514272662
197.7584128957677,-1.527984942319647,33.21164143655779
198.0084128957677,-1.5268949453079326,33.215831251137004
198.2584128957677,-1.5259888109713002,33.219410687706834
198.5084128957677,-1.5246533678834475,33.223596731404555
198.7584128957677,-1.5232954959593288,33.228462476671176
199.0084128957677,-1.5223201485748825,33.2324275807043
199.2584128957677,-1.5216226516148295,33.235645200967404
199.5084128957677,-1.5208017114849783,33.2394837795481
199.7584128957677,-1.5195965114775902,33.24316665177956
200.0084128957677,-1.5185174806726325,33.24725685543924
200.2584128957677,-1.5175511869113834,33.25184243997049
200.5084128957677,-1.5165100240000235,33.2563464654263
200.7584128957677,-1.5151165292936712,33.26036365092455
201.0084128957677,-1.5134792665443075,33.26427141910788
201.2584128957677,-1.5124068047798098,33.268644149015465
201.5084128957677,-1.5109402721350846,33.27260649300699
201.7584128957677,-1.5091004308513605,33.2763332811066
202.0084128957677,-1.5072529174414537,33.28046481959678
202.2584128957677,-1.5054107307788187,33.28496358419728
202.5084128957677,-1.5036974441816995,33.28951588420542
202.7584128957677,-1.5024225295740894,33.294644138200894
203.0084128957677,-1.5005086796808296,33.30008066956575
203.2584128957677,-1.49762212030976,33.30502163548488
203.5084128957677,-1.4950146209511082,33.30897138066912
203.7584128957677,-1.4934039963099668,33.31250980199582
204.0084128957677,-1.4917239513838227,33.316598261638454
204.2584128957677,-1.4898411759162664,33.32063297935119
204.5084128957677,-1.4883005273188834,33.324265958299186
204.7584128957677,-1.4864381564164206,33.328081642688346
205.0084128957677,-1.4840820450870265,33.33237628664608
205.2584128957677,-1.482222100067905,33.336648057075834
205.5084128957677,-1.4812867666111615,33.340712442747105
205.7584128957677,-1.4801801845205238,33.34561381991408
206.0084128957677,-1.4780591151475062,33.351293878533724
206.2584128957677,-1.4740948567635928,33.35808899026263
206.5084128957677,-1.4696130069625477,33.36578419901107
206.7584128957677,-1.4662707741116243,33.37281796658604
207.0084128957677,-1.4631966062196955,33.377883523703524
207.2584128957677,-1.4615955400647984,33.38189049149635
207.5084128957677,-1.4601489411119806,33.38538993302653
207.7584128957677,-1.4582803072111905,33.388411264070015
208.0084128957677,-1.4564588645788508,33.39100231906651
208.2584128957677,-1.4547786114014845,33.39344808562734
208.5084128957677,-1.452937336545143,33.39617804217691
208.7584128957677,-1.4504714188031773,33.39963407831876
209.0084128957677,-1.4479600877089944,33.40350899375653
209.2584128957677,-1.445407000857185,33.407125384502734
209.5084128957677,-1.4428258689880777,33.410548449551804
209.7584128957677,-1.4404506670555384,33.41436803023241
210.0084128957677,-1.4375033266932307,33.418392437425695
210.2584128957677,-1.4348984528173048,33.42286937000827
210.5084128957677,-1.4327000000788832,33.42742879333486
210.7584128957677,-1.430811517842844,33.43231874535546
211.0084128957677,-1.428274086564575,33.43670938875519
211.2584128957677,-1.424575359317282,33.43927121319616
211.5084128957677,-1.4230158047736337,33.442575915673025
211.7584128957677,-1.4219927810480923,33.44566947440339
212.0084128957677,-1.4205457765434026,33.44836278661841
212.2584128957677,-1.4189437721762803,33.45058504099417
212.5084128957677,-1.4169585830383498,33.452412938893275
212.7584128957677,-1.4139194961205255,33.45491039100174
213.0084128957677,-1.4103525577735296,33.458022778394216
213.2584128957677,-1.4070648618327417,33.46226903957798
213.5084128957677,-1.4027299945790723,33.46799728703336
213.7584128957677,-1.3978435981877275,33.473806923959714
214.0084128957677,-1.3942293845790816,33.47878101275006
214.2584128957677,-1.3910203702417527,33.484414529657826
214.5084128957677,-1.3871665422417867,33.49055868768186
214.7584128957677,-1.3829573906687453,33.49713658251448
215.0084128957677,-1.3787190921801888,33.503244099761694
215.2584128957677,-1.3743214016633774,33.50928736190804
215.5084128957677,-1.3695456932278867,33.515993579477446
215.7584128957677,-1.364457415428682,33.52254069230164
216.0084128957677,-1.3596030362351241,33.529633901838544
216.2584128957677,-1.3564319009911867,33.537210860860434
216.5084128957677,-1.3531525259982453,33.54405401992112
216.7584128957677,-1.3494662302263378,33.54997103351269
217.0084128957677,-1.3469368792176035,33.55512353862579
217.2584128957677,-1.3449237626483872,33.55870609199186
217.5084128957677,-1.343563940963325,33.561868890064524
217.7584128957677,-1.342649386634459,33.56433979980936
218.0084128957677,-1.3412896531733454,33.56771387479905
218.2584128957677,-1.3398874344258858,33.571159882088565
218.5084128957677,-1.3394041769180416,33.57343663513402
218.7584128957677,-1.3385456860620042,33.57821723459215
219.0084128957677,-1.3354200853543572,33.58475291776261
219.2584128957677,-1.3318498262349505,33.58972435339043
219.5084128957677,-1.3295324528421955,33.59362010777059
219.7584128957677,-1.3281231202452928,33.597387844587274
220.0084128957677,-1.3264396832201553,33.60073970262881
220.2584128957677,-1.324285937163903,33.60496382069429
220.5084128957677,-1.3226226003949997,33.60901379031461
220.7584128957677,-1.3207642917372973,33.613533803345845
221.0084128957677,-1.3177871943535509,33.61823610638106
221.2584128957677,-1.3143705982099227,33.622340808999475
221.5084128957677,-1.3110182685285747,33.62710261015897
221.7584128957677,-1.3062525370217593,33.6341500914803
222.0084128957677,-1.3024856996168488,33.63931773689373
222.2584128957677,-1.2996353936016982,33.64499991812407
222.5084128957677,-1.2971048353945953,33.65173696911444
222.7584128957677,-1.2947068641937245,33.65835243780322
223.0084128957677,-1.2921009060323643,33.66519694605887
223.2584128957677,-1.2895560741056837,33.67026579241241
223.5084128957677,-1.287409320083088,33.67348627349376
223.7584128957677,-1.2852526439052858,33.67696656571598
224.0084128957677,-1.282989814333813,33.68041120173842
224.2584128957677,-1.2808976761143986,33.68337582771079
224.5084128957677,-1.2788649739352353,33.687414061175026
224.7584128957677,-1.2764638081970594,33.691422144528765
225.0084128957677,-1.2736070725001445,33.696556419764605
225.2584128957677,-1.270200226607386,33.70303151081985
225.5084128957677,-1.2668026190804111,33.70864782432635
225.7584128957677,-1.263674984621595,33.713303713078446
226.0084128957677,-1.2601223464963982,33.72006664619461
226.2584128957677,-1.256948346416378,33.725870029002415
226.5084128957677,-1.2539676613745918,33.73050243943753
226.7584128957677,-1.2511973348400622,33.734731591855386
227.0084128957677,-1.2488544818081513,33.73890228313165
227.2584128957677,-1.2466765887289044,33.742911725836414
227.5084128957677,-1.244317875751128,33.74651169619454
227.7584128957677,-1.2423448969373458,33.750467033237136
228.0084128957677,-1.2401326521626825,33.75449066086702
228.2584128957677,-1.2375333888162576,33.75920932630523
228.5084128957677,-1.2344048935352283,33.76482214453566
228.7584128957677,-1.2303630931266387,33.77151158100942
229.0084128957677,-1.2257714612264152,33.78089933831569
229.2584128957677,-1.2208256298122449,33.79076947416884
229.5084128957677,-1.2164268027162846,33.79901108658682
229.7584128957677,-1.2127579246071531,33.805319683386834
230.0084128957677,-1.2099588960817727,33.81002465219495
230.2584128957677,-1.2081242890592654,33.81318963920525
230.5084128957677,-1.2056907413290492,33.81618130290911
230.7584128957677,-1.2023654909703902,33.82294382770151
231.0084128957677,-1.1991778014678072,33.82990226969817
231.2584128957677,-1.196276880187459,33.83547244991716
231.5084128957677,-1.1932274815414305,33.84162029189463
231.7584128957677,-1.1900616980612588,33.84791390035363
232.0084128957677,-1.186507154306012,33.85338594693809
232.2584128957677,-1.1829088613032008,33.8598223992288
232.5084128957677,-1.179075598992244,33.86542813843327
232.7584128957677,-1.1757739076613496,33.86930909787797
233.0084128957677,-1.1734684427590456,33.872823422229914
233.2584128957677,-1.1708232196213686,33.87658618671362
233.5084128957677,-1.1678207741430684,33.88112703685485
233.7584128957677,-1.1643078013854513,33.88576314013275
234.0084128957677,-1.1606353369130609,33.89072524038669
234.2584128957677,-1.1573955942412235,33.8960132187616
234.5084128957677,-1.1541680283387383,33.90056158215363
234.7584128957677,-1.1499745457172799,33.9041423184329
235.0084128957677,-1.1473429858658644,33.90734918067014
235.2584128957677,-1.1452500065503655,33.91084952599946
235.5084128957677,-1.1417770846430013,33.91542746695171
235.7584128957677,-1.1372670271212049,33.921179399336985
236.0084128957677,-1.1324376014182287,33.927520393400556
236.2584128957677,-1.1258914697288311,33.93439711982807
236.5084128957677,-1.1206965556510695,33.94048827648456
236.7584128957677,-1.1164016975253432,33.94590916459622
237.0084128957677,-1.1116830469223458,33.951323076738824
237.2584128957677,-1.1065277325596232,33.95639915741077
237.5084128957677,-1.1010376228183192,33.96042332025147
237.7584128957677,-1.096222900182753,33.964147225413484
238.0084128957677,-1.0917078110056597,33.96843862010225
238.2584128957677,-1.0872160811926617,33.972647047674904
238.5084128957677,-1.0829211662793012,33.97600659804211
238.7584128957677,-1.0788249722400491,33.97894824662379
239.0084128957677,-1.0747608497459493,33.98245244361286
239.2584128957677,-1.070992138183704,33.9864308007367
239.5084128957677,-1.0661182871756103,33.98946303827771
239.7584128957677,-1.0597718047507236,33.99328865501378
240.0084128957677,-1.0531813544726973,33.99820189957337
240.2584128957677,-1.047399166990606,34.00236878990596
240.5084128957677,-1.0420942969593663,34.005868286528425
240.7584128957677,-1.0368648238602811,34.008631860131516
241.0084128957677,-1.0314856114610935,34.0110344475109
241.2584128957677,-1.0250818805671156,34.014604468752644
241.5084128957677,-1.0172068080479493,34.019984558091394
241.7584128957677,-1.0087386332294161,34.02535567097547
242.0084128957677,-1.0002949912541939,34.02923054389873
242.2584128957677,-0.9904004724914817,34.03607441881333
242.5084128957677,-0.980804410695126,34.04242022698221
242.7584128957677,-0.9746414235596645,34.044029550716076
243.0084128957677,-0.9706988029027279,34.04630029706312
243.2584128957677,-0.9643839156677159,34.05521610795464
243.5084128957677,-0.9591064516230587,34.05931305525433
243.7584128957677,-0.9528073696060111,34.06129363037819
244.0084128957677,-0.9450084731809381,34.06730151148306
244.2584128957677,-0.9398708246890329,34.07271769405101
244.5084128957677,-0.9381049019186732,34.074247915687565
244.7584128957677,-0.9331442404146693,34.08109324511627
245.0084128957677,-0.9253238092884727,34.08569141055002
245.2584128957677,-0.9209560020441044,34.088996983314274
245.5084128957677,-0.9175554292252185,34.091864962224975
245.7584128957677,-0.9102966560146021,34.09624459622279
246.0084128957677,-0.9024314049186027,34.10316884644784
246.2584128957677,-0.9004220620435565,34.10505137540012
246.5084128957677,-0.8996446184493384,34.10529224710738
246.7584128957677,-0.8953574614110451,34.10918351974531
247.0084128957677,-0.8858929929349554,34.11414692832919
247.2584128957677,-0.8729040597786952,34.117388930404324
247.5084128957677,-0.8620704718639577,34.123379508621575
247.7584128957677,-0.8599087107232568,34.12631254745381
248.0084128957677,-0.85946435031972,34.12653154628222
248.2584128957677,-0.8593275757794228,34.12682597668001
248.5084128957677,-0.8572463545456365,34.13104168637779
248.7584128957677,-0.8459800333772894,34.13936482768892
249.0084128957677,-0.832686166400927,34.142604889497775
249.2584128957677,-0.8298370680511306,34.144344280649364
249.5084128957677,-0.8284194791448423,34.14568917331171
249.7584128957677,-0.8227891880862013,34.14627808645539
250.0084128957677,-0.8189858748683617,34.14694683191181
250.2584128957677,-0.8182816382883603,34.147664444543516
250.5084128957677,-0.8171480697797115,34.14791331940315
250.7584128957677,-0.81858208166047,34.14884829504413
251.0084128957677,-0.8122932044301243,34.15532194896845
251.2584128957677,-0.7989830054444151,34.16429374703732
251.5084128957677,-0.7950961450985371,34.16703545829461
251.7584128957677,-0.794654760996805,34.16769248851711
252.0084128957677,-0.7941999926102251,34.16790763422431
252.2584128957677,-0.7933272530146318,34.16800768842351
252.5084128957677,-0.7932988799952916,34.16839107486439
252.7584128957677,-0.7924830483670179,34.17039343502704
253.0084128957677,-0.7864023944226313,34.17531534727514
253.2584128957677,-0.7788895594718296,34.18078978197504
253.5084128957677,-0.776727068556342,34.183556429153306
253.7584128957677,-0.7770918240105226,34.1839508819813
254.0084128957677,-0.7761881650013057,34.18427910178433
254.2584128957677,-0.7759112743160756,34.185097477417806
254.5084128957677,-0.7754151774313898,34.18729554776462
254.7584128957677,-0.7669434930631678,34.1967624068471
255.0084128957677,-0.7626688975443845,34.201380036277065
255.2584128957677,-0.7629623815334561,34.201527012542435
255.5084128957677,-0.7624086106360595,34.20209336472771
255.7584128957677,-0.7617491391844172,34.20166981947539
256.0084128957677,-0.7608943107531366,34.20187760951168
256.2584128957677,-0.761130798976359,34.202837311058914
256.5084128957677,-0.7571064260172296,34.20817910637643
256.7584128957677,-0.7464338630049042,34.214276636559234
257.0084128957677,-0.736748253467219,34.216516379836754
257.2584128957677,-0.7363532013433,34.218059123132974
257.5084128957677,-0.7361728738328135,34.218212088352324
257.7584128957677,-0.7353027260549829,34.218418608791396
258.0084128957677,-0.7349121017670943,34.2190872411702
258.2584128957677,-0.7338065290659076,34.220264665765036
258.5084128957677,-0.7293787632287982,34.22403944112068
258.7584128957677,-0.7208412790794088,34.23099677468589
259.0084128957677,-0.7142906416549291,34.23297833220395
259.2584128957677,-0.7118970641380772,34.2330868574489
259.5084128957677,-0.7107630514041376,34.23368904569509
259.7584128957677,-0.7089424539858089,34.23418806930292
260.0084128957677,-0.707505584308716,34.235298832821584
260.2584128957677,-0.7042884642630133,34.23654043681748
260.5084128957677,-0.6965438267948584,34.24131680710612
260.7584128957677,-0.6914340166199391,34.24565721872083
261.0084128957677,-0.6912296767772246,34.24617413946797
261.2584128957677,-0.6897396309150099,34.24637843186486
261.5084128957677,-0.6884655676022521,34.24846423949992
261.7584128957677,-0.6800265615226176,34.25426495467611
262.0084128957677,-0.6743058209949678,34.258512435162864
262.2584128957677,-0.6728653836587734,34.25893899553162
262.5084128957677,-0.6709008938440176,34.2595409116556
262.7584128957677,-0.6668651460873191,34.26320414923912
263.0084128957677,-0.6509420606195373,34.26747106965739
263.2584128957677,-0.6382145789473527,34.27186237549304
263.5084128957677,-0.6329107444249721,34.273887358066524
263.7584128957677,-0.632850487604149,34.27498974904099
264.0084128957677,-0.6278682093667717,34.278145903606294
264.2584128957677,-0.6068210353697294,34.28214225643813
264.5084128957677,-0.5926369023675335,34.286025974347446
264.7584128957677,-0.5888880851329402,34.28842577197153
265.0084128957677,-0.5879712653435323,34.2887301257285
265.2584128957677,-0.5843109823496045,34.291573828120335
265.5084128957677,-0.5746716868318907,34.29910078458817
265.7584128957677,-0.557727636384106,34.301139269133145
266.0084128957677,-0.5503182943036933,34.30329602384248
266.2584128957677,-0.5495735870658307,34.30515111485405
266.5084128957677,-0.5480834377207296,34.30525011263664
266.7584128957677,-0.545304759288203,34.30720015428628
267.0084128957677,-0.5393269077664038,34.31289584631064
267.2584128957677,-0.5282532261901721,34.316262309395924
267.5084128957677,-0.5241458495992319,34.317977373234896
267.7584128957677,-0.5243590019303019,34.31869983111868
268.0084128957677,-0.5234397985572351,34.31860128118428
268.2584128957677,-0.5227262456394947,34.31956562096183
268.5084128957677,-0.5198216666090016,34.32282343970562
268.7584128957677,-0.5150544237247041,34.32509964611991
269.0084128957677,-0.5094447632919827,34.32825231627982
269.2584128957677,-0.5069888488366205,34.330854174310346
269.5084128957677,-0.5036694020732543,34.33170037093393
269.7584128957677,-0.49342783536985035,34.333864766071606
270.0084128957677,-0.49171981219618327,34.33586006419344
270.2584128957677,-0.49236050572584145,34.336478972594925
270.5084128957677,-0.4882269431383469,34.33966394443037
270.7584128957677,-0.4824927290716983,34.342982594634336
271.0084128957677,-0.4785963276796915,34.34377953951174
271.2584128957677,-0.47246322073789454,34.34782409529882
271.5084128957677,-0.46603781059800403,34.34932424518748
271.7584128957677,-0.45691444159636524,34.35112503874372
272.0084128957677,-0.4515593027778631,34.35330558001323
272.2584128957677,-0.4520620382554439,34.35403123090697
272.5084128957677,-0.4514484231300347,34.3542029990085
272.7584128957677,-0.4506914732455598,34.354627709489286
273.0084128957677,-0.45046572718992584,34.356053955732264
273.2584128957677,-0.4422038956997959,34.3587523682795
273.5084128957677,-0.4333210391252381,34.362121146523954
273.7584128957677,-0.4334754106362714,34.36443151181666
274.0084128957677,-0.43197124133031584,34.36518359544562
274.2584128957677,-0.4226858159287545,34.36765648958421
274.5084128957677,-0.4177077783520184,34.36977925089575
274.7584128957677,-0.41711368812991306,34.37040434364655
275.0084128957677,-0.4162412043531954,34.370585024854506
275.2584128957677,-0.4155359159966317,34.371121468621986
275.5084128957677,-0.41468749065816624,34.37204245653427
275.7584128957677,-0.40919561032558355,34.37531003709791
276.0084128957677,-0.4002600865635558,34.379221424449746
276.2584128957677,-0.3951321752497147,34.38159531495133
276.5084128957677,-0.391200056020566,34.38295023651996
276.7584128957677,-0.3808639001389689,34.38509261473817
277.0084128957677,-0.378505239494016,34.38703682386958
277.2584128957677,-0.3785357311505287,34.38755043002965
277.5084128957677,-0.3775933903413441,34.387733767450094
277.7584128957677,-0.3769281652424079,34.388742074265124
278.0084128957677,-0.37340792229514636,34.390544852357074
278.2584128957677,-0.36392356275178733,34.39300944762388
278.5084128957677,-0.36059781429848914,34.39553251568101
278.7584128957677,-0.35737318191127604,34.39812948662031
279.0084128957677,-0.3497868121032212,34.400270568614715
279.2584128957677,-0.343657283350529,34.40152431679837
