Depth,Temperature,Salinity
185.33568199936767,-1.5445428770461904,33.08543944827037
185.58568199936767,-1.5445545169989503,33.08755206153545
185.83568199936767,-1.5442015481198523,33.0901025142029
186.08568199936767,-1.5440152001664922,33.09390388425793
186.33568199936767,-1.5438703503309097,33.09762205594519
186.58568199936767,-1.543518169096876,33.09985146519781
186.83568199936767,-1.54343772069039,33.10252713176871
187.08568199936767,-1.543136643990735,33.105463144380316
187.33568199936767,-1.5426888135330186,33.1082591462383
187.58568199936767,-1.542432649165912,33.1105396866116
187.83568199936767,-1.542325899602725,33.11211413720368
188.08568199936767,-1.5420605697471754,33.1137949428644
188.33568199936767,-1.5418023852318452,33.11655312872099
188.58568199936767,-1.541445308260657,33.1200871930216
188.83568199936767,-1.5408212157960943,33.12332975513484
189.08568199936767,-1.5401569816076957,33.126019064758964
189.33568199936767,-1.5396570611937361,33.129519715001244
189.58568199936767,-1.5393071276765404,33.133251870565694
189.83568199936767,-1.5389893771254908,33.136312609824685
190.08568199936767,-1.538626047687946,33.13907967054644
190.33568199936767,-1.5382091215908287,33.14249716286455
190.58568199936767,-1.5376895031169981,33.146050566502225
190.83568199936767,-1.5372408498388934,33.14884247926684
191.08568199936767,-1.536999596508314,33.151033945539446
191.33568199936767,-1.5368135065747126,33.15365177154445
191.58568199936767,-1.5364921457108955,33.15698876355049
191.83568199936767,-1.5363425345501343,33.16083100820125
192.08568199936767,-1.536142672536564,33.16367524398313
192.33568199936767,-1.5357667997791056,33.16553129992137
192.58568199936767,-1.5352540118159899,33.16784161963781
192.83568199936767,-1.534264501010173,33.17047337784522
193.08568199936767,-1.533645651281483,33.17388662801181
193.33568199936767,-1.5333021139120877,33.17734052879553
193.58568199936767,-1.5332238902125188,33.18030238587693
193.83568199936767,-1.5336992145150794,33.18314248889143
194.08568199936767,-1.5335615307326502,33.185650534577796
194.33568199936767,-1.533119456591796,33.18883353796471
194.58568199936767,-1.5326427148489918,33.19262873319838
194.83568199936767,-1.5319976063778777,33.19590001213588
195.08568199936767,-1.5313719004541206,33.198232374190695
195.33568199936767,-1.5310504297356284,33.200518010905824
195.58568199936767,-1.530673166357062,33.203197124172625
195.83568199936767,-1.5300386568578719,33.20628417557424
196.08568199936767,-1.52944695958717,33.209795215071956
196.33568199936767,-1.5288727866941292,33.21350442935936
196.58568199936767,-1.5280767876640657,33.21628862261469
196.83568199936767,-1.5271502523060914,33.2189895598058
197.08568199936767,-1.526464201228649,33.22273193648301
197.33568199936767,-1.5260332165208912,33.22673687545614
197.58568199936767,-1.5251958541830837,33.229648188259034
197.83568199936767,-1.5243968458314021,33.232090921845746
198.08568199936767,-1.5236800699243405,33.234648374727655
198.33568199936767,-1.5228558352160941,33.23768547003146
198.58568199936767,-1.5219530364703908,33.241273849292554
198.83568199936767,-1.5207598354127236,33.244210596346086
199.08568199936767,-1.5195760256939497,33.246768629696014
199.33568199936767,-1.5186646857959067,33.24965355514498
199.58568199936767,-1.517880598630149,33.25314547862559
199.83568199936767,-1.5168027454185884,33.25689740848907
200.08568199936767,-1.5153329787722378,33.25996009505767
200.33568199936767,-1.5140083087006244,33.26320191776272
200.58568199936767,-1.5128725865506338,33.26750685530738
200.83568199936767,-1.511334591799232,33.27236315893927
201.08568199936767,-1.5093556377383555,33.27695445698913
201.33568199936767,-1.5073698559851727,33.28158594043951
201.58568199936767,-1.50552514694563,33.286289740419015
201.83568199936767,-1.5035782651719565,33.290684279558114
202.08568199936767,-1.5013298490883786,33.294777506262015
202.33568199936767,-1.4988830043373251,33.299250279400724
202.58568199936767,-1.4959819407864166,33.30385354947989
202.83568199936767,-1.4934547872730366,33.30864108675122
203.08568199936767,-1.4917185030784594,33.31350983509945
203.33568199936767,-1.4901710824733712,33.317996486516776
203.58568199936767,-1.4885193770493146,33.322041074483515
203.83568199936767,-1.4871370772889192,33.3262225084276
204.08568199936767,-1.4857619554169896,33.33037946181596
204.33568199936767,-1.4842266298120435,33.33446231301869
204.58568199936767,-1.4828166404169094,33.33884052748178
204.83568199936767,-1.4809803221698463,33.342881621351644
205.08568199936767,-1.4782650777219497,33.347107233275494
205.33568199936767,-1.4750790280202624,33.35218336466136
205.58568199936767,-1.4719208426046937,33.35740309311258
205.83568199936767,-1.4685764120306317,33.36121236252288
206.08568199936767,-1.4656400043209348,33.36553568259277
206.33568199936767,-1.4629934256061754,33.370300063538934
206.58568199936767,-1.460372793266696,33.37473973810575
206.83568199936767,-1.4578081404304173,33.379197243998384
207.08568199936767,-1.4550332939776152,33.3840601065389
207.33568199936767,-1.4519371148682845,33.38939374096623
207.58568199936767,-1.4485569694683,33.39506816563081
207.83568199936767,-1.445113597032084,33.400787874012
208.08568199936767,-1.4418661485715938,33.40610177494233
208.33568199936767,-1.4386786792165729,33.410677580705666
208.58568199936767,-1.4353804275603255,33.415097466918674
208.83568199936767,-1.4316567382580716,33.419772171276534
209.08568199936767,-1.4277267949912547,33.42457473108064
209.33568199936767,-1.4244249358801602,33.42915516539692
209.58568199936767,-1.4212187360516157,33.43312264865701
209.83568199936767,-1.4177685275687355,33.437071858544755
210.08568199936767,-1.4142307134849776,33.44151944015036
210.33568199936767,-1.4107500651425382,33.446492151482474
210.58568199936767,-1.4071269727248177,33.45194249788409
210.83568199936767,-1.4035993266943128,33.45750488124997
211.08568199936767,-1.4003713795814159,33.462668400023155
211.33568199936767,-1.3972308332681547,33.467487007936306
211.58568199936767,-1.3939046580539458,33.47271061057423
211.83568199936767,-1.3905799719392584,33.4788397877561
212.08568199936767,-1.3869437743772555,33.48475363012663
212.33568199936767,-1.3832586070991926,33.49043119298237
212.58568199936767,-1.379673464301348,33.49635237755863
212.83568199936767,-1.3759007477682763,33.502457023865816
213.08568199936767,-1.3720123864432965,33.5086704790411
213.33568199936767,-1.367456667413023,33.515236523634414
213.58568199936767,-1.3622765695985448,33.52218516470005
213.83568199936767,-1.3571654132139774,33.529300704016926
214.08568199936767,-1.3525566823407558,33.53626787677167
214.33568199936767,-1.3479409010727814,33.54270817521911
214.58568199936767,-1.343394433955279,33.548894175739235
214.83568199936767,-1.3393568710939192,33.55474899952483
215.08568199936767,-1.3359650105047713,33.56020012733305
215.33568199936767,-1.3328535036518656,33.565791854344106
215.58568199936767,-1.3298572401190127,33.57149947906619
215.83568199936767,-1.326769058227919,33.577467280117865
216.08568199936767,-1.3235000643888577,33.58381921668226
216.33568199936767,-1.3202233821348135,33.59044063650675
216.58568199936767,-1.3170339320970752,33.597268717325946
216.83568199936767,-1.3130861437757793,33.604965428142656
217.08568199936767,-1.3092800285265775,33.61323393599365
217.33568199936767,-1.3063730428600495,33.62102844339815
217.58568199936767,-1.3036173898794516,33.62821786550761
217.83568199936767,-1.3002708264182594,33.63628812803412
218.08568199936767,-1.2963997833905008,33.64349678371487
218.33568199936767,-1.2928751405201555,33.64977357020779
218.58568199936767,-1.2898503755152047,33.65625237008278
218.83568199936767,-1.2865399393659627,33.66285587120724
219.08568199936767,-1.2832069659078968,33.668881593811214
219.33568199936767,-1.2801529136498506,33.67551825052319
219.58568199936767,-1.2768276656023811,33.68318579300375
219.83568199936767,-1.273001671569363,33.69048724055902
220.08568199936767,-1.2693321616636744,33.69605341578803
220.33568199936767,-1.2661058933322447,33.70104144259124
220.58568199936767,-1.263875956622672,33.70569519996665
220.83568199936767,-1.2622540730754537,33.710089830471965
221.08568199936767,-1.260456547361942,33.71440033013486
221.33568199936767,-1.2583342349271918,33.71873977275538
221.58568199936767,-1.2559258312397799,33.72351414068831
221.83568199936767,-1.2531139190510574,33.7284561159726
222.08568199936767,-1.2497583111703956,33.733624469006756
222.33568199936767,-1.245861048637429,33.73955031212755
222.58568199936767,-1.2415760778090204,33.745783683665046
222.83568199936767,-1.2371416275419092,33.75166347026936
223.08568199936767,-1.2330515310134378,33.75691470785567
223.33568199936767,-1.2298161763428959,33.76203399701809
223.58568199936767,-1.2275333548470189,33.76784587719153
223.83568199936767,-1.2260592348336896,33.773396466320385
224.08568199936767,-1.2249806216602657,33.778525263845935
224.33568199936767,-1.22358486982724,33.78331007839759
224.58568199936767,-1.2212083803755112,33.7880888166909
224.83568199936767,-1.2179196589020647,33.79450936539726
225.08568199936767,-1.2145707078956731,33.801127009168155
225.33568199936767,-1.2114772331452972,33.80671297543382
225.58568199936767,-1.2077255792480137,33.81125251940893
225.83568199936767,-1.2023686061309153,33.81606213425974
226.08568199936767,-1.1965746976092748,33.82341445945578
226.33568199936767,-1.1911493781619786,33.82997990493721
226.58568199936767,-1.1870876117463833,33.835057313983434
226.83568199936767,-1.1843061592701654,33.840730279238066
227.08568199936767,-1.1810859900634154,33.84747444969699
227.33568199936767,-1.177478540554874,33.85432046689358
227.58568199936767,-1.1744066242932538,33.86089001903254
227.83568199936767,-1.1715766125879508,33.86695947371359
228.08568199936767,-1.1680606593471352,33.87253321499831
228.33568199936767,-1.164232414714228,33.878354723795596
228.58568199936767,-1.159704398694197,33.88445007181933
228.83568199936767,-1.154661401808656,33.89218890801613
229.08568199936767,-1.149731579785723,33.89933420644437
229.33568199936767,-1.1445905661974634,33.90283731373201
229.58568199936767,-1.137728992172429,33.90885219662465
229.83568199936767,-1.1324589975437795,33.91542500385227
230.08568199936767,-1.1290732953140346,33.91908157642067
230.33568199936767,-1.125220942725018,33.9214879778725
230.58568199936767,-1.1204673833940106,33.92742795365186
230.83568199936767,-1.1162007930519509,33.93366092268315
231.08568199936767,-1.112112936343274,33.93729881318787
231.33568199936767,-1.1075757754456559,33.93997412484716
231.58568199936767,-1.1023672951749295,33.94486516724669
231.83568199936767,-1.0962707984869573,33.95095964509505
232.08568199936767,-1.0904726702973087,33.95492337762984
232.33568199936767,-1.0838337313127755,33.95853074863343
232.58568199936767,-1.076142979858112,33.964426302522256
232.83568199936767,-1.0689571014454298,33.971056595556114
233.08568199936767,-1.060895614406879,33.975290170879354
233.33568199936767,-1.05159718125547,33.981639191850746
233.58568199936767,-1.0442822848183135,33.98686227342298
233.83568199936767,-1.039623985621536,33.98930494228795
234.08568199936767,-1.0327267798936015,33.99707446202709
234.33568199936767,-1.024745357076767,34.00364880023944
234.58568199936767,-1.0195732917243123,34.006575520172994
234.83568199936767,-1.0161940302055095,34.00882758545163
235.08568199936767,-1.010181973757307,34.01243034202403
235.33568199936767,-1.001935273791619,34.01485482187134
235.58568199936767,-0.9946489383853094,34.01850191865885
235.83568199936767,-0.9887360361133268,34.022608500491934
236.08568199936767,-0.9823420554302701,34.02780566910432
236.33568199936767,-0.975133774085097,34.03657441561998
236.58568199936767,-0.9702399482628954,34.0408803104723
236.83568199936767,-0.9645371929011313,34.043384109234125
237.08568199936767,-0.9581229797492923,34.048016091890005
237.33568199936767,-0.9541576896957168,34.05333134318402
237.58568199936767,-0.9510366458365949,34.05587599164848
237.83568199936767,-0.9463109672189325,34.05669512190861
238.08568199936767,-0.9403729597254531,34.06119260656327
238.33568199936767,-0.9359146622237362,34.06792729043937
238.58568199936767,-0.9348876000631007,34.069481980784914
238.83568199936767,-0.9346862784451455,34.06962424738724
239.08568199936767,-0.9279512272115011,34.07367361973357
239.33568199936767,-0.919558025463556,34.07987376492489
239.58568199936767,-0.916789545852575,34.08346639874708
239.83568199936767,-0.9150220727783663,34.0842954591502
240.08568199936767,-0.9144472377511107,34.08463818618563
240.33568199936767,-0.9061688691628982,34.08958028379676
240.58568199936767,-0.8942618999220895,34.09786591922926
240.83568199936767,-0.8920219473025236,34.1026839905029
241.08568199936767,-0.890932738598048,34.1034408748234
241.33568199936767,-0.8887191655084662,34.1029837030373
241.58568199936767,-0.8873569656201897,34.10387136725977
241.83568199936767,-0.8805842047613524,34.10761087694989
242.08568199936767,-0.8610047432584007,34.114438318914125
242.33568199936767,-0.8542403050486935,34.12156328456703
242.58568199936767,-0.8540284318129922,34.12481808078053
242.83568199936767,-0.8529800398233781,34.124564308886356
243.08568199936767,-0.8510328038395414,34.12615724175373
243.33568199936767,-0.8369973163966523,34.13340366934931
243.58568199936767,-0.8273816032334549,34.14089667189143
243.83568199936767,-0.8255700959619362,34.14454665851697
244.08568199936767,-0.8249674985417892,34.14492659376622
244.33568199936767,-0.8240664252492449,34.144755244667444
244.58568199936767,-0.8228596100297892,34.144867408814534
244.83568199936767,-0.8212828965755102,34.14478542852316
245.08568199936767,-0.8127680310612909,34.14749374910545
245.33568199936767,-0.7983627487999432,34.15487303475029
245.58568199936767,-0.7928036726981347,34.16215662392626
245.83568199936767,-0.7916978312028636,34.16456699594808
246.08568199936767,-0.7903141087061875,34.16439057517452
246.33568199936767,-0.7900897518761166,34.164408386067606
246.58568199936767,-0.787016411897707,34.166528957185534
246.83568199936767,-0.769269428145242,34.17373597956587
247.08568199936767,-0.7625446984798306,34.180365785012384
247.33568199936767,-0.7638161623321803,34.18222316938457
247.58568199936767,-0.7619941059116717,34.1809911180586
247.83568199936767,-0.7609278037993628,34.18083021666937
248.08568199936767,-0.7590764269200806,34.18118357929217
248.33568199936767,-0.7596560714423454,34.181082369766365
248.58568199936767,-0.7531374428049584,34.183583554114776
248.83568199936767,-0.7374434048871908,34.19017167130333
249.08568199936767,-0.7311174775872352,34.19589256863691
249.33568199936767,-0.730081994317279,34.19764790341792
249.58568199936767,-0.7294864793468492,34.19752063285711
249.83568199936767,-0.7275979470790257,34.19804523875227
250.08568199936767,-0.7262138228906221,34.19831387548625
250.33568199936767,-0.7232501286192755,34.19806279093275
250.58568199936767,-0.7040428516450464,34.2052230048389
250.83568199936767,-0.6956075861361235,34.212907364536434
251.08568199936767,-0.6979409346707546,34.21522344033832
251.33568199936767,-0.6957925898748442,34.21448375327785
251.58568199936767,-0.6945585819392773,34.214634697876804
251.83568199936767,-0.6930568211615276,34.21384192435244
252.08568199936767,-0.6816256482105567,34.21867770015176
252.33568199936767,-0.6704239419396858,34.22639043072469
252.58568199936767,-0.6711684959428867,34.229252755847476
252.83568199936767,-0.6700663646083982,34.22969202571714
253.08568199936767,-0.6698557376085132,34.22920207029203
253.33568199936767,-0.6604123960023973,34.23242655693168
253.58568199936767,-0.6450705610221574,34.239427134294736
253.83568199936767,-0.6446503681900171,34.24360497411712
254.08568199936767,-0.6442590746979414,34.244384609676914
254.33568199936767,-0.6443385918336287,34.24401856561206
254.58568199936767,-0.6403741682732781,34.24666518747086
254.83568199936767,-0.6270486129925578,34.25338676374097
255.08568199936767,-0.6227060111418672,34.25772809003199
255.33568199936767,-0.6223912500612346,34.25898922504242
255.58568199936767,-0.6215084057576181,34.25883174747919
255.83568199936767,-0.6210166409471556,34.25889739618809
256.0856819993677,-0.6202488499275783,34.259294667915654
256.3356819993677,-0.6149154325017165,34.25904497735023
256.5856819993677,-0.6064214139624099,34.2650856686633
256.8356819993677,-0.6014212120407845,34.27160640222985
257.0856819993677,-0.6014165087879685,34.27240729020989
257.3356819993677,-0.6007504756045333,34.27238563995348
257.5856819993677,-0.5996234326566736,34.27282496484595
257.8356819993677,-0.5998996941585445,34.27239860466918
258.0856819993677,-0.5935515481534509,34.27552269749427
258.3356819993677,-0.5806244111705088,34.28351596322957
258.5856819993677,-0.5792325172851109,34.28702317914439
258.8356819993677,-0.5789966546235933,34.28707544402271
259.0856819993677,-0.5770829558712592,34.286665500787365
259.3356819993677,-0.5769192151076307,34.28695223303122
259.5856819993677,-0.5756012092208777,34.28777232057796
259.8356819993677,-0.564600311731392,34.28996353060734
260.0856819993677,-0.5548354685498574,34.29640027450634
260.3356819993677,-0.5516784886989127,34.30175962833113
260.5856819993677,-0.5513324328749359,34.30247669906486
260.8356819993677,-0.5501867100853622,34.30234910764193
261.0856819993677,-0.5507561487461311,34.302878981378015
261.3356819993677,-0.5427484656643575,34.304824092885035
261.5856819993677,-0.5307524596224719,34.30916842396637
261.8356819993677,-0.5263638517028669,34.31429141046589
262.0856819993677,-0.5254629562324424,34.315611926873544
262.3356819993677,-0.5249012936849676,34.31540835746238
262.5856819993677,-0.522907556355402,34.315800681263156
262.8356819993677,-0.5227363257594111,34.31587326330282
263.0856819993677,-0.5210641451484853,34.31658575197202
263.3356819993677,-0.5005976176005928,34.32448721718032
263.5856819993677,-0.4911862908769619,34.33207120958935
263.8356819993677,-0.49290272620747805,34.33448890975761
264.0856819993677,-0.4913341724620109,34.33382020153168
264.3356819993677,-0.4909390200142851,34.3335897328972
264.5856819993677,-0.4902739088038304,34.33337339234525
264.8356819993677,-0.48934812005317435,34.33314835789382
265.0856819993677,-0.48841922214886235,34.33270618909324
265.3356819993677,-0.4872772460637822,34.332276868337765
265.5856819993677,-0.485825933320994,34.33266779531312
265.8356819993677,-0.4819567093915381,34.330860287803475
266.0856819993677,-0.47656248276309643,34.334031657935796
266.3356819993677,-0.4654344890586201,34.34142202697439
266.5856819993677,-0.4475743514383215,34.344758659090765
266.8356819993677,-0.44079362544751405,34.35007681550451
267.0856819993677,-0.4394273919294366,34.35288650452538
267.3356819993677,-0.4384159875035653,34.3527422223458
267.5856819993677,-0.43769393921370364,34.35295066211665
267.8356819993677,-0.43657693651115026,34.35342956991903
268.0856819993677,-0.43674412686550795,34.35324003820483
268.3356819993677,-0.4255941381848878,34.357245118105624
268.5856819993677,-0.4119969534702751,34.364698310883284
268.8356819993677,-0.4123762282582425,34.3690161296089
269.0856819993677,-0.411382089914671,34.368932635437645
269.3356819993677,-0.4099469604036156,34.3684678236978
269.5856819993677,-0.40881928524408684,34.368323877182505
269.8356819993677,-0.4072380432070662,34.3677251003698
270.0856819993677,-0.4060143229911149,34.3673659172117
270.3356819993677,-0.40524726171433345,34.367993664005816
270.5856819993677,-0.4005182160842584,34.366989834178405
270.8356819993677,-0.3867724542514246,34.37062566698832
271.0856819993677,-0.3715341885952557,34.38007766072156
271.3356819993677,-0.3698735333116157,34.38443532671146
271.5856819993677,-0.37030160690003633,34.384743591718724
271.8356819993677,-0.36930871382893865,34.384225995506505
272.0856819993677,-0.36837903334318595,34.38379708342884
272.3356819993677,-0.3671644552851527,34.383231892403984
272.5856819993677,-0.36522093721187354,34.3837110664121
272.8356819993677,-0.3650957548670018,34.38328856902523
